0.000000 0.042826 0.064027 -0.013455
0.001000 0.081650 0.050880 -0.063302
0.002000 0.095162 0.021914 -0.088144
0.003000 0.078274 0.010970 -0.101496
0.004000 0.116943 0.016596 -0.127399
0.005000 0.127492 -0.003344 -0.148639
0.006000 0.153833 0.021053 -0.170858
0.007000 0.148500 0.055493 -0.127926
0.008000 0.161073 0.087326 -0.092571
0.009000 0.171646 0.131481 -0.054564
0.010000 0.170381 0.184404 -0.010129
0.011000 0.159046 0.213972 0.016489
0.012000 0.115130 0.221173 0.092940
0.013000 0.106934 0.238611 0.103772
0.014000 0.086681 0.253330 0.127890
0.015000 0.081843 0.225137 0.121963
0.016000 0.033557 0.195615 0.147387
0.017000 0.025741 0.172864 0.110931
0.018000 0.045619 0.156007 0.085456
0.019000 0.084286 0.143650 0.042275
0.020000 0.085469 0.112201 -0.010731
0.021000 0.091565 0.083468 -0.041238
0.022000 0.103042 0.040655 -0.081797
0.023000 0.096674 0.013872 -0.112954
0.024000 0.107007 0.012054 -0.130497
0.025000 0.134036 0.016966 -0.136163
0.026000 0.145431 0.027590 -0.145813
0.027000 0.145357 0.060164 -0.118280
0.028000 0.145031 0.081200 -0.077757
0.029000 0.159850 0.121594 -0.053498
0.030000 0.142546 0.168991 -0.010774
0.031000 0.124431 0.191650 0.042540
0.032000 0.117260 0.218132 0.086489
0.033000 0.102905 0.239326 0.108090
0.034000 0.087549 0.232229 0.122020
0.035000 0.086591 0.226466 0.119259
0.036000 0.081202 0.220299 0.112558
0.037000 0.090223 0.202922 0.080901
0.038000 0.092079 0.179697 0.071492
0.039000 0.100192 0.168033 0.041384
0.040000 0.098558 0.114975 -0.017010
0.041000 0.074642 0.052787 -0.046916
0.042000 0.093062 0.015306 -0.090507
0.043000 0.124211 0.018250 -0.137099
0.044000 0.138913 0.004626 -0.162585
0.045000 0.160656 0.007958 -0.167897
0.046000 0.188448 0.048557 -0.170365
0.047000 0.182985 0.078502 -0.135420
0.048000 0.209241 0.118019 -0.106244
0.049000 0.204906 0.147712 -0.073069
0.050000 0.153732 0.161916 -0.023058
0.051000 0.089002 0.174665 0.067104
0.052000 0.051795 0.189590 0.111429
0.053000 0.053436 0.213650 0.119416
0.054000 0.113314 0.233539 0.103185
0.055000 0.109055 0.238815 0.116300
0.056000 0.079108 0.229282 0.112731
0.057000 0.051350 0.203567 0.129886
0.058000 0.026156 0.152571 0.104608
0.059000 0.043259 0.111158 0.048271
0.060000 0.076221 0.086940 -0.024974
0.061000 0.089326 0.060698 -0.064054
0.062000 0.104281 0.033456 -0.090812
0.063000 0.133478 0.036210 -0.127577
0.064000 0.132841 0.037670 -0.130659
0.065000 0.123254 0.035226 -0.101711
0.066000 0.138265 0.056988 -0.111339
0.067000 0.150427 0.082074 -0.110927
0.068000 0.136620 0.078596 -0.070420
0.069000 0.118064 0.098869 -0.034068
0.070000 0.098541 0.148334 0.012538
0.071000 0.114880 0.166475 0.028871
0.072000 0.095534 0.187145 0.067807
0.073000 0.116225 0.238797 0.093975
0.074000 0.088720 0.234141 0.117224
0.075000 0.088895 0.205045 0.103712
0.076000 0.070548 0.199278 0.105723
0.077000 0.079672 0.186466 0.067220
0.078000 0.100621 0.155013 0.030934
0.079000 0.104913 0.120674 -0.001718
0.080000 0.073114 0.072953 -0.025229
0.081000 0.046926 0.042606 -0.021739
0.082000 0.067099 0.034567 -0.047848
0.083000 0.099070 0.023943 -0.112026
0.084000 0.135490 0.017359 -0.151808
0.085000 0.124202 -0.002917 -0.143252
0.086000 0.123163 0.001582 -0.147071
0.087000 0.136899 0.039290 -0.128318
0.088000 0.148980 0.070446 -0.100988
0.089000 0.138214 0.097201 -0.060605
0.090000 0.105059 0.146169 0.006682
0.091000 0.109545 0.172644 0.039927
0.092000 0.117915 0.205950 0.058893
0.093000 0.117750 0.230425 0.086098
0.094000 0.098515 0.224958 0.109523
0.095000 0.087718 0.225818 0.101363
0.096000 0.070102 0.225656 0.125911
0.097000 0.054303 0.197766 0.124789
0.098000 0.054222 0.157124 0.091925
0.099000 0.046053 0.109165 0.039584
0.100000 0.050441 0.062077 -0.016114
0.101000 0.066127 0.044307 -0.041057
0.102000 0.117579 0.053716 -0.100748
0.103000 0.111256 0.021463 -0.118042
0.104000 0.112199 0.004047 -0.124020
0.105000 0.146199 0.023656 -0.150192
0.106000 0.161859 0.040179 -0.162284
0.107000 0.163652 0.039505 -0.136031
0.108000 0.169425 0.073677 -0.114944
0.109000 0.170079 0.113899 -0.078793
0.110000 0.135047 0.160713 -0.008391
0.111000 0.131715 0.185527 0.032544
0.112000 0.124776 0.200122 0.061120
0.113000 0.113374 0.247014 0.090663
0.114000 0.089033 0.245119 0.129814
0.115000 0.088627 0.236829 0.133088
0.116000 0.081748 0.239112 0.127153
0.117000 0.074968 0.210092 0.101574
0.118000 0.084638 0.173258 0.069233
0.119000 0.072532 0.136513 0.030055
0.120000 0.076837 0.100365 -0.005173
0.121000 0.074594 0.059859 -0.028260
0.122000 0.100802 0.046805 -0.097307
0.123000 0.130443 0.042016 -0.121446
0.124000 0.126510 0.030657 -0.109771
0.125000 0.116537 0.025683 -0.108280
0.126000 0.100727 0.016727 -0.124379
0.127000 0.097435 0.020071 -0.098546
0.128000 0.139382 0.065639 -0.090081
0.129000 0.145385 0.103312 -0.073654
0.130000 0.140119 0.148942 -0.017376
0.131000 0.131522 0.185853 0.037859
0.132000 0.117196 0.210511 0.066359
0.133000 0.105490 0.226135 0.100652
0.134000 0.109156 0.235618 0.118431
0.135000 0.132612 0.260827 0.091748
0.136000 0.133042 0.261258 0.102942
0.137000 0.089988 0.214825 0.107459
0.138000 0.103969 0.181988 0.057681
0.139000 0.066970 0.168105 0.060292
0.140000 0.077256 0.124607 0.017551
0.141000 0.093148 0.082210 -0.029100
0.142000 0.094020 0.057665 -0.070293
0.143000 0.080666 0.024760 -0.086344
0.144000 0.088396 0.045996 -0.064145
0.145000 0.114129 0.043948 -0.096375
0.146000 0.138358 0.033259 -0.144402
0.147000 0.133286 0.018964 -0.130789
0.148000 0.108481 0.038809 -0.088653
0.149000 0.137984 0.104167 -0.068186
0.150000 0.160847 0.162652 -0.028509
0.151000 0.174370 0.209257 0.023721
0.152000 0.132796 0.219813 0.055864
0.153000 0.116144 0.260655 0.117373
0.154000 0.050990 0.254440 0.185106
0.155000 0.052626 0.244573 0.166170
0.156000 0.043274 0.224995 0.145995
0.157000 0.060826 0.200426 0.125138
0.158000 0.040956 0.155195 0.094437
0.159000 0.031065 0.114783 0.049125
0.160000 0.045923 0.076072 -0.016625
0.161000 0.050750 0.033817 -0.034062
0.162000 0.041810 0.015294 -0.051146
0.163000 0.061486 0.008982 -0.094640
0.164000 0.105080 0.015520 -0.124467
0.165000 0.152822 0.034968 -0.135735
0.166000 0.154296 0.051592 -0.140289
0.167000 0.165964 0.072382 -0.135249
0.168000 0.190067 0.100585 -0.102269
0.169000 0.191800 0.141401 -0.068601
0.170000 0.146342 0.166004 -0.007521
0.171000 0.130721 0.191049 0.041758
0.172000 0.102597 0.207959 0.086061
0.173000 0.085969 0.242288 0.114462
0.174000 0.106050 0.254386 0.127835
0.175000 0.122566 0.246169 0.105813
0.176000 0.091440 0.232398 0.108802
0.177000 0.069932 0.215169 0.121124
0.178000 0.067322 0.178120 0.104271
0.179000 0.060644 0.155489 0.062962
0.180000 0.069519 0.120053 0.012487
0.181000 0.086922 0.098240 -0.011713
0.182000 0.102785 0.081168 -0.041272
0.183000 0.098327 0.052664 -0.081281
0.184000 0.124901 0.054819 -0.093301
0.185000 0.130413 0.043864 -0.107051
0.186000 0.121964 0.048044 -0.104861
0.187000 0.149319 0.087649 -0.083592
0.188000 0.170970 0.115192 -0.064589
0.189000 0.169734 0.159485 -0.043472
0.190000 0.160634 0.208237 0.016798
0.191000 0.163015 0.231618 0.048215
0.192000 0.134865 0.258109 0.089284
0.193000 0.107294 0.283843 0.143463
0.194000 0.089007 0.276305 0.165492
0.195000 0.123355 0.279764 0.135532
0.196000 0.125518 0.260645 0.107287
0.197000 0.080130 0.223513 0.115384
0.198000 0.080548 0.204009 0.107056
0.199000 0.058142 0.177125 0.089044
0.200000 0.077068 0.134693 0.023803
0.201000 0.095734 0.091476 -0.024175
0.202000 0.119411 0.084106 -0.064028
0.203000 0.126034 0.045113 -0.113699
0.204000 0.134244 0.034638 -0.120436
0.205000 0.146630 0.045657 -0.114863
0.206000 0.172166 0.070668 -0.140940
0.207000 0.200266 0.110615 -0.117062
0.208000 0.221183 0.138796 -0.101132
0.209000 0.224966 0.151795 -0.084278
0.210000 0.170908 0.174197 -0.034132
0.211000 0.165528 0.199798 0.011706
0.212000 0.132139 0.233818 0.087728
0.213000 0.133324 0.280252 0.112424
0.214000 0.108787 0.281032 0.134976
0.215000 0.103614 0.266946 0.143475
0.216000 0.093363 0.268095 0.152709
0.217000 0.090820 0.250853 0.119608
0.218000 0.124349 0.222640 0.077159
0.219000 0.108332 0.178281 0.050464
0.220000 0.107536 0.138041 -0.009110
0.221000 0.077625 0.098207 -0.000803
0.222000 0.105673 0.073737 -0.046922
0.223000 0.143029 0.054331 -0.114711
0.224000 0.150980 0.049521 -0.137167
0.225000 0.141468 0.042340 -0.117154
0.226000 0.171103 0.054427 -0.138461
0.227000 0.150376 0.067344 -0.108615
0.228000 0.124197 0.083876 -0.056761
0.229000 0.165807 0.123330 -0.057488
0.230000 0.179391 0.187293 -0.031369
0.231000 0.178056 0.207935 0.011840
0.232000 0.158707 0.220025 0.051149
0.233000 0.126011 0.256753 0.095605
0.234000 0.092925 0.251699 0.137381
0.235000 0.067115 0.245589 0.163624
0.236000 0.060354 0.243462 0.160565
0.237000 0.058901 0.235529 0.136778
0.238000 0.072240 0.187699 0.097995
0.239000 0.056821 0.154084 0.077161
0.240000 0.051443 0.136194 0.039746
0.241000 0.070149 0.106073 0.008718
0.242000 0.103616 0.068308 -0.053019
0.243000 0.123119 0.052711 -0.106142
0.244000 0.124673 0.028145 -0.126467
0.245000 0.130223 0.011508 -0.133759
0.246000 0.118633 0.018599 -0.129730
0.247000 0.133624 0.035655 -0.132434
0.248000 0.153041 0.065357 -0.104185
0.249000 0.190962 0.119054 -0.085273
0.250000 0.190740 0.189489 -0.034250
0.251000 0.155204 0.188241 0.013266
0.252000 0.125547 0.201640 0.066446
0.253000 0.094623 0.241611 0.110152
0.254000 0.103699 0.246626 0.120006
0.255000 0.073189 0.225417 0.137424
0.256000 0.058026 0.225470 0.135732
0.257000 0.036413 0.193855 0.126729
0.258000 0.080526 0.184834 0.080600
0.259000 0.093676 0.165664 0.056103
0.260000 0.102396 0.137841 -0.001776
0.261000 0.081715 0.067361 -0.037681
0.262000 0.063100 0.012783 -0.071961
0.263000 0.071872 -0.005530 -0.113166
0.264000 0.108007 -0.006024 -0.132417
0.265000 0.103155 -0.008972 -0.137063
0.266000 0.101703 0.013145 -0.126161
0.267000 0.123422 0.023352 -0.114423
0.268000 0.135178 0.067501 -0.084988
0.269000 0.153510 0.109210 -0.065967
0.270000 0.131537 0.149640 -0.017384
0.271000 0.148229 0.175824 0.009514
0.272000 0.132732 0.184481 0.037920
0.273000 0.126663 0.215909 0.059836
0.274000 0.108050 0.228790 0.097462
0.275000 0.084976 0.233376 0.131531
0.276000 0.082963 0.232018 0.113342
0.277000 0.048226 0.206996 0.123570
0.278000 0.049549 0.162519 0.090826
0.279000 0.057334 0.139063 0.054750
0.280000 0.076768 0.120051 0.005032
0.281000 0.058794 0.080238 -0.014584
0.282000 0.099864 0.063119 -0.063405
0.283000 0.118687 0.028228 -0.113418
0.284000 0.120945 0.021264 -0.135483
0.285000 0.116773 0.022323 -0.119945
0.286000 0.123073 0.022012 -0.121637
0.287000 0.150263 0.058285 -0.109196
0.288000 0.141826 0.090066 -0.082927
0.289000 0.179021 0.130933 -0.069762
0.290000 0.158401 0.162328 -0.021209
0.291000 0.145859 0.186822 0.013782
0.292000 0.125083 0.205843 0.071146
0.293000 0.095109 0.238143 0.111799
0.294000 0.085266 0.245035 0.144495
0.295000 0.086421 0.251356 0.152022
0.296000 0.074228 0.251038 0.144480
0.297000 0.070356 0.234827 0.140683
0.298000 0.101618 0.198723 0.071886
0.299000 0.078741 0.149056 0.031670
0.300000 0.088850 0.110412 -0.005109
0.301000 0.093134 0.084795 -0.020697
0.302000 0.108880 0.084752 -0.068134
0.303000 0.134168 0.046252 -0.109649
0.304000 0.125522 0.032906 -0.123039
0.305000 0.117165 0.027364 -0.126864
0.306000 0.139740 0.023617 -0.140464
0.307000 0.160127 0.035039 -0.136019
0.308000 0.141019 0.070149 -0.085866
0.309000 0.146381 0.117531 -0.066414
0.310000 0.117394 0.152327 0.020311
0.311000 0.121647 0.197631 0.055866
0.312000 0.085557 0.214442 0.096667
0.313000 0.068040 0.236399 0.128198
0.314000 0.087759 0.242292 0.130793
0.315000 0.089027 0.230047 0.120452
0.316000 0.078209 0.201587 0.088273
0.317000 0.078021 0.186816 0.088814
0.318000 0.091326 0.172794 0.054770
0.319000 0.073481 0.136195 0.027458
0.320000 0.088194 0.094964 -0.022363
0.321000 0.077675 0.057762 -0.054826
0.322000 0.053601 0.037243 -0.052791
0.323000 0.075858 0.007080 -0.089409
0.324000 0.102160 0.018422 -0.108794
0.325000 0.123404 0.024503 -0.140379
0.326000 0.163151 0.039393 -0.156786
0.327000 0.192323 0.068726 -0.137576
0.328000 0.186961 0.098828 -0.113397
0.329000 0.226456 0.150506 -0.111378
0.330000 0.218807 0.200752 -0.040924
0.331000 0.202044 0.271225 0.045169
0.332000 0.223090 0.336833 0.084184
0.333000 0.262051 0.397897 0.115173
0.334000 0.289609 0.439099 0.137066
0.335000 0.246803 0.461908 0.184889
0.336000 0.236568 0.476491 0.202347
0.337000 0.253249 0.500397 0.222708
0.338000 0.289583 0.523741 0.217066
0.339000 0.285315 0.509923 0.198367
0.340000 0.307632 0.482227 0.143948
0.341000 0.344330 0.511623 0.136319
0.342000 0.371538 0.521958 0.130667
0.343000 0.400637 0.506959 0.064469
0.344000 0.418153 0.470885 0.027456
0.345000 0.392292 0.445059 0.027508
0.346000 0.335959 0.411072 0.036144
0.347000 0.289637 0.357410 0.057504
0.348000 0.239548 0.331110 0.066815
0.349000 0.237166 0.352524 0.085411
0.350000 0.198211 0.324958 0.120551
0.351000 0.126951 0.332195 0.191107
0.352000 0.035743 0.338148 0.276602
0.353000 -0.029824 0.330189 0.349323
0.354000 -0.129643 0.283628 0.398356
0.355000 -0.184710 0.270252 0.426667
0.356000 -0.256074 0.241117 0.490224
0.357000 -0.293366 0.228653 0.502090
0.358000 -0.307566 0.187261 0.467780
0.359000 -0.305790 0.130619 0.419169
0.360000 -0.281084 0.090145 0.343404
0.361000 -0.247204 0.053739 0.266696
0.362000 -0.215263 0.007157 0.190301
0.363000 -0.149434 -0.032648 0.092267
0.364000 -0.109146 -0.033493 0.034492
0.365000 -0.089367 -0.037486 0.021082
0.366000 -0.080474 -0.045116 0.017798
0.367000 -0.053684 -0.034727 -0.000186
0.368000 -0.054082 -0.013102 0.006269
0.369000 -0.023154 0.013668 0.017151
0.370000 -0.021375 0.047627 0.056558
0.371000 0.000141 0.103612 0.063193
0.372000 0.012813 0.103412 0.083332
0.373000 0.006712 0.158691 0.122717
0.374000 0.022856 0.191334 0.133631
0.375000 0.042708 0.193243 0.141096
0.376000 0.029843 0.196256 0.139009
0.377000 0.020474 0.193712 0.133046
0.378000 0.014124 0.155002 0.115948
0.379000 0.000253 0.137009 0.124065
0.380000 0.016434 0.095200 0.042618
0.381000 0.026272 0.054175 -0.013959
0.382000 0.045765 0.033345 -0.031149
0.383000 0.119250 0.026577 -0.119068
0.384000 0.143347 0.035914 -0.147467
0.385000 0.134516 0.029818 -0.133451
0.386000 0.137091 0.036002 -0.119655
0.387000 0.155047 0.067892 -0.126650
0.388000 0.161033 0.102814 -0.080020
0.389000 0.164741 0.138382 -0.044930
0.390000 0.148477 0.166290 -0.003476
0.391000 0.130356 0.201635 0.037082
0.392000 0.129248 0.229173 0.070375
0.393000 0.106558 0.261783 0.135567
0.394000 0.106503 0.279007 0.155707
0.395000 0.095155 0.287582 0.162993
0.396000 0.089167 0.288586 0.169341
0.397000 0.092566 0.284238 0.178129
0.398000 0.103087 0.269563 0.142601
0.399000 0.083284 0.225216 0.116498
0.400000 0.080266 0.166072 0.071331
0.401000 0.057884 0.126353 0.021229
0.402000 0.082680 0.092918 -0.013877
0.403000 0.116160 0.090041 -0.061040
0.404000 0.155331 0.078904 -0.087531
0.405000 0.145564 0.068325 -0.099656
0.406000 0.141122 0.067222 -0.108336
0.407000 0.158798 0.081060 -0.103575
0.408000 0.175930 0.102530 -0.087656
0.409000 0.211166 0.149952 -0.082701
0.410000 0.166703 0.201963 0.006647
0.411000 0.149151 0.229637 0.062272
0.412000 0.147127 0.245719 0.067050
0.413000 0.133633 0.260417 0.103439
0.414000 0.126772 0.284887 0.131337
0.415000 0.134781 0.311089 0.141376
0.416000 0.128013 0.300431 0.148781
0.417000 0.126801 0.274661 0.137042
0.418000 0.131059 0.271215 0.101283
0.419000 0.110169 0.229775 0.097533
0.420000 0.077863 0.192851 0.100674
0.421000 0.092132 0.162790 0.052545
0.422000 0.125275 0.138081 -0.032377
0.423000 0.161253 0.103968 -0.087895
0.424000 0.172149 0.072074 -0.121890
0.425000 0.166703 0.065587 -0.131847
0.426000 0.164246 0.067698 -0.122313
0.427000 0.191363 0.095132 -0.123881
0.428000 0.210805 0.135528 -0.111025
0.429000 0.221991 0.161809 -0.085163
0.430000 0.227733 0.185451 -0.054362
0.431000 0.209740 0.246528 0.005401
0.432000 0.179296 0.286270 0.074321
0.433000 0.166190 0.307589 0.124665
0.434000 0.183338 0.349529 0.144485
0.435000 0.162788 0.331292 0.136754
0.436000 0.108707 0.272739 0.148935
0.437000 0.077981 0.274123 0.165561
0.438000 0.084474 0.248766 0.133758
0.439000 0.058983 0.204113 0.127552
0.440000 0.071263 0.184773 0.083243
0.441000 0.091039 0.153245 0.023792
0.442000 0.121697 0.138348 -0.017959
0.443000 0.164734 0.137135 -0.048595
0.444000 0.152313 0.107870 -0.066861
0.445000 0.169670 0.104501 -0.099656
0.446000 0.179457 0.087307 -0.124755
0.447000 0.215268 0.104214 -0.131338
0.448000 0.212905 0.148100 -0.093528
0.449000 0.194077 0.182711 -0.039435
0.450000 0.193898 0.212091 -0.004925
0.451000 0.195513 0.263266 0.031724
0.452000 0.200232 0.286571 0.060237
0.453000 0.180846 0.302336 0.102879
0.454000 0.169438 0.322326 0.135904
0.455000 0.167662 0.348050 0.151592
0.456000 0.150709 0.343834 0.164381
0.457000 0.134449 0.332057 0.161537
0.458000 0.134001 0.307149 0.137195
0.459000 0.127445 0.259956 0.115819
0.460000 0.128516 0.231381 0.077279
0.461000 0.135012 0.196546 0.025003
0.462000 0.162807 0.174625 -0.001494
0.463000 0.169675 0.171256 -0.040672
0.464000 0.165424 0.143313 -0.054439
0.465000 0.199872 0.118515 -0.107204
0.466000 0.217534 0.126602 -0.131939
0.467000 0.213032 0.123055 -0.111986
0.468000 0.241557 0.166561 -0.093072
0.469000 0.240728 0.196419 -0.072249
0.470000 0.224378 0.237012 -0.018656
0.471000 0.212921 0.269198 0.042164
0.472000 0.205881 0.297262 0.069459
0.473000 0.165083 0.319108 0.127553
0.474000 0.178618 0.347876 0.153069
0.475000 0.168720 0.350330 0.147069
0.476000 0.157949 0.322111 0.142363
0.477000 0.133154 0.308311 0.149256
0.478000 0.143496 0.306285 0.115299
0.479000 0.141838 0.270632 0.100717
0.480000 0.165058 0.255684 0.064834
0.481000 0.168007 0.223388 0.016582
0.482000 0.162566 0.178649 -0.015421
0.483000 0.163296 0.134103 -0.045604
0.484000 0.174618 0.134198 -0.072509
0.485000 0.199268 0.139662 -0.089425
0.486000 0.194251 0.126681 -0.090039
0.487000 0.205737 0.129436 -0.097508
0.488000 0.201956 0.161305 -0.075663
0.489000 0.225048 0.212131 -0.039581
0.490000 0.239468 0.261104 0.007937
0.491000 0.216418 0.297843 0.040688
0.492000 0.236783 0.325730 0.081958
0.493000 0.196143 0.340468 0.129698
0.494000 0.183957 0.382393 0.168294
0.495000 0.171968 0.384643 0.173079
0.496000 0.169726 0.364746 0.176650
0.497000 0.151337 0.349629 0.174833
0.498000 0.162398 0.340574 0.141553
0.499000 0.171526 0.318335 0.102084
0.500000 0.161585 0.267073 0.082789
0.501000 0.165638 0.248305 0.053617
0.502000 0.189456 0.229373 -0.002963
0.503000 0.215937 0.194397 -0.038989
0.504000 0.195073 0.155308 -0.064752
0.505000 0.212284 0.156212 -0.085243
0.506000 0.211893 0.166564 -0.076565
0.507000 0.220514 0.170492 -0.072799
0.508000 0.230353 0.189252 -0.062651
0.509000 0.238287 0.224532 -0.036928
0.510000 0.249448 0.266600 -0.009143
0.511000 0.240121 0.321982 0.047459
0.512000 0.222873 0.342479 0.107524
0.513000 0.233583 0.381375 0.133023
0.514000 0.225719 0.405112 0.154685
0.515000 0.200927 0.420661 0.179557
0.516000 0.215395 0.423160 0.187523
0.517000 0.201526 0.407329 0.166458
0.518000 0.188501 0.370486 0.155299
0.519000 0.193476 0.331796 0.116144
0.520000 0.184553 0.304097 0.083409
0.521000 0.192831 0.244619 0.035335
0.522000 0.164386 0.215516 0.020615
0.523000 0.198195 0.204968 -0.035360
0.524000 0.231367 0.189048 -0.061799
0.525000 0.267341 0.218669 -0.078936
0.526000 0.264129 0.210137 -0.079012
0.527000 0.246718 0.222466 -0.049671
0.528000 0.298595 0.256512 -0.070873
0.529000 0.304412 0.294217 -0.041210
0.530000 0.282500 0.292221 -0.012955
0.531000 0.261696 0.320883 0.037236
0.532000 0.258546 0.370818 0.076163
0.533000 0.235624 0.380278 0.124838
0.534000 0.238976 0.420743 0.160672
0.535000 0.239587 0.438054 0.162599
0.536000 0.236660 0.423772 0.157745
0.537000 0.237346 0.419535 0.173780
0.538000 0.224142 0.411089 0.163494
0.539000 0.218916 0.382609 0.132191
0.540000 0.190376 0.335388 0.125412
0.541000 0.204496 0.279867 0.047407
0.542000 0.195535 0.251582 0.019561
0.543000 0.216053 0.234855 -0.016248
0.544000 0.230375 0.197444 -0.047536
0.545000 0.224009 0.205313 -0.054670
0.546000 0.231764 0.215456 -0.058785
0.547000 0.278069 0.227389 -0.070967
0.548000 0.312201 0.268082 -0.080007
0.549000 0.287772 0.280623 -0.040503
0.550000 0.279511 0.286307 -0.012589
0.551000 0.277876 0.332173 0.038097
0.552000 0.287839 0.382135 0.059810
0.553000 0.294340 0.421081 0.108777
0.554000 0.286714 0.452119 0.139148
0.555000 0.250436 0.448589 0.159622
0.556000 0.227958 0.425001 0.186349
0.557000 0.181991 0.391672 0.191038
0.558000 0.179112 0.376836 0.164049
0.559000 0.174806 0.355814 0.145548
0.560000 0.154604 0.341677 0.153513
0.561000 0.183554 0.292750 0.096868
0.562000 0.198951 0.255802 0.041589
0.563000 0.220352 0.242518 -0.019920
0.564000 0.225444 0.198340 -0.055540
0.565000 0.250277 0.186050 -0.080863
0.566000 0.269347 0.194615 -0.094226
0.567000 0.259344 0.216507 -0.080284
0.568000 0.266128 0.225935 -0.055202
0.569000 0.285820 0.281931 -0.034371
0.570000 0.301637 0.315785 -0.022310
0.571000 0.273419 0.334635 0.035002
0.572000 0.278143 0.381162 0.087097
0.573000 0.249028 0.407574 0.130949
0.574000 0.227245 0.413402 0.160948
0.575000 0.207850 0.420828 0.177334
0.576000 0.238927 0.439387 0.181588
0.577000 0.203572 0.425163 0.208698
0.578000 0.155343 0.377636 0.181105
0.579000 0.131826 0.309935 0.154348
0.580000 0.152340 0.302123 0.116422
0.581000 0.161132 0.267037 0.070559
0.582000 0.186792 0.228645 0.018428
0.583000 0.216016 0.210108 -0.036300
0.584000 0.208504 0.171427 -0.064239
0.585000 0.209602 0.141133 -0.087507
0.586000 0.204872 0.144383 -0.086903
0.587000 0.233706 0.156599 -0.111309
0.588000 0.246460 0.168537 -0.089700
0.589000 0.212497 0.184935 -0.044837
0.590000 0.217901 0.228822 -0.028040
0.591000 0.210005 0.265916 0.039098
0.592000 0.188969 0.300705 0.085143
0.593000 0.184353 0.334457 0.130786
0.594000 0.176115 0.357496 0.165469
0.595000 0.141210 0.358986 0.180588
0.596000 0.149706 0.349352 0.167247
0.597000 0.150086 0.338374 0.170394
0.598000 0.134184 0.306899 0.142611
0.599000 0.134729 0.276891 0.102827
0.600000 0.138469 0.228451 0.077555
0.601000 0.130635 0.185752 0.036023
0.602000 0.133175 0.156708 -0.022171
0.603000 0.169678 0.126538 -0.062569
0.604000 0.179995 0.094649 -0.107442
0.605000 0.199227 0.104351 -0.139079
0.606000 0.218860 0.099947 -0.149910
0.607000 0.197266 0.089064 -0.120838
0.608000 0.135724 0.108287 -0.058634
0.609000 0.129579 0.154577 -0.011918
0.610000 0.203785 0.193578 -0.029520
0.611000 0.174185 0.226683 0.034810
0.612000 0.144966 0.261688 0.079347
0.613000 0.151318 0.272597 0.103682
0.614000 0.154188 0.303365 0.133537
0.615000 0.128286 0.300232 0.141873
0.616000 0.106705 0.288411 0.161783
0.617000 0.075667 0.273819 0.179516
0.618000 0.077325 0.259915 0.154505
0.619000 0.094037 0.232594 0.098934
0.620000 0.097178 0.197411 0.081845
0.621000 0.101925 0.154374 0.036866
0.622000 0.092069 0.134471 0.007962
0.623000 0.102109 0.109542 -0.026095
0.624000 0.108225 0.064642 -0.063637
0.625000 0.153378 0.052392 -0.124491
0.626000 0.171236 0.068433 -0.144298
0.627000 0.184601 0.064485 -0.134883
0.628000 0.187311 0.096631 -0.111997
0.629000 0.177145 0.130655 -0.091178
0.630000 0.172093 0.149530 -0.043489
0.631000 0.157720 0.184817 0.016066
0.632000 0.170238 0.229478 0.032906
0.633000 0.163354 0.242872 0.039679
0.634000 0.121964 0.251192 0.109954
0.635000 0.088800 0.244320 0.134764
0.636000 0.113040 0.266105 0.111881
0.637000 0.116275 0.273663 0.130079
0.638000 0.111347 0.255763 0.129564
0.639000 0.059790 0.189814 0.100982
0.640000 0.022338 0.120690 0.069082
0.641000 0.066707 0.110902 0.026823
0.642000 0.105734 0.117653 -0.024810
0.643000 0.124057 0.088788 -0.061685
0.644000 0.136870 0.037692 -0.111479
0.645000 0.146969 0.040177 -0.131627
0.646000 0.171713 0.075081 -0.134039
0.647000 0.180547 0.062238 -0.129587
0.648000 0.162306 0.060234 -0.119813
0.649000 0.137475 0.084369 -0.087760
0.650000 0.168390 0.150839 -0.052510
0.651000 0.146774 0.162231 0.008703
0.652000 0.137686 0.202559 0.041278
0.653000 0.125837 0.225976 0.069963
0.654000 0.128969 0.239269 0.095671
0.655000 0.106738 0.243819 0.124283
0.656000 0.109931 0.264483 0.122122
0.657000 0.103874 0.255042 0.120554
0.658000 0.093869 0.222415 0.108863
0.659000 0.090873 0.195404 0.081764
0.660000 0.052813 0.148776 0.055456
0.661000 0.073486 0.110009 0.008133
0.662000 0.088498 0.073004 -0.027135
0.663000 0.118651 0.087239 -0.076751
0.664000 0.140472 0.061193 -0.113712
0.665000 0.142440 0.022532 -0.133444
0.666000 0.138011 0.028008 -0.137162
0.667000 0.143066 0.044123 -0.136000
0.668000 0.167765 0.057505 -0.121943
0.669000 0.176053 0.105728 -0.098536
0.670000 0.181476 0.129324 -0.086993
0.671000 0.169676 0.158811 -0.020471
0.672000 0.151173 0.199972 0.033844
0.673000 0.132610 0.228342 0.060609
0.674000 0.124582 0.231188 0.081519
0.675000 0.105521 0.221463 0.105845
0.676000 0.105499 0.245577 0.106496
0.677000 0.111120 0.240401 0.101650
0.678000 0.091984 0.216492 0.106564
0.679000 0.070836 0.197286 0.096479
0.680000 0.115158 0.203724 0.050734
0.681000 0.096774 0.165950 0.045591
0.682000 0.078766 0.089223 -0.001236
0.683000 0.089437 0.066162 -0.069564
0.684000 0.127235 0.035782 -0.123715
0.685000 0.137567 0.032847 -0.122047
0.686000 0.172155 0.042216 -0.146164
0.687000 0.123005 0.031601 -0.124909
0.688000 0.137539 0.044103 -0.116121
0.689000 0.182894 0.101460 -0.100518
0.690000 0.199214 0.161926 -0.069636
0.691000 0.163374 0.175791 -0.015924
0.692000 0.133224 0.176254 0.027870
0.693000 0.140535 0.205349 0.047097
0.694000 0.121997 0.247030 0.084711
0.695000 0.110615 0.245534 0.117658
0.696000 0.121317 0.263238 0.125856
0.697000 0.097619 0.265308 0.126686
0.698000 0.097547 0.240957 0.119204
0.699000 0.089188 0.193582 0.088294
0.700000 0.071100 0.155798 0.050544
0.701000 0.079677 0.123305 0.008501
0.702000 0.081757 0.082650 -0.016421
0.703000 0.085349 0.075799 -0.045288
0.704000 0.077606 0.036843 -0.071847
0.705000 0.107148 0.025656 -0.107811
0.706000 0.102380 0.039949 -0.083910
0.707000 0.122408 0.050079 -0.110871
0.708000 0.163994 0.063992 -0.119288
0.709000 0.173445 0.109425 -0.083139
0.710000 0.168196 0.152280 -0.048631
0.711000 0.135197 0.187242 0.021217
0.712000 0.141041 0.217693 0.059908
0.713000 0.158273 0.249387 0.069318
0.714000 0.147202 0.290233 0.103194
0.715000 0.120968 0.276584 0.132260
0.716000 0.093066 0.257222 0.139941
0.717000 0.090869 0.257522 0.127493
0.718000 0.060137 0.235883 0.157561
0.719000 0.053176 0.213690 0.141003
0.720000 0.086463 0.207745 0.079634
0.721000 0.119794 0.163068 0.013527
0.722000 0.092522 0.112071 0.000397
0.723000 0.092468 0.093644 -0.018109
0.724000 0.108307 0.073473 -0.073170
0.725000 0.135291 0.065197 -0.114222
0.726000 0.141708 0.034543 -0.118212
0.727000 0.149946 0.041941 -0.133399
0.728000 0.173339 0.054293 -0.138841
0.729000 0.137883 0.079002 -0.090748
0.730000 0.178167 0.146812 -0.056647
0.731000 0.181653 0.198788 0.004710
0.732000 0.156507 0.237112 0.050115
0.733000 0.134140 0.261560 0.088601
0.734000 0.115027 0.286274 0.148686
0.735000 0.103281 0.292095 0.170099
0.736000 0.098032 0.301955 0.177295
0.737000 0.090001 0.300620 0.173373
0.738000 0.082770 0.290941 0.184382
0.739000 0.113805 0.266429 0.141783
0.740000 0.076104 0.223966 0.122943
0.741000 0.100302 0.206397 0.063372
0.742000 0.106041 0.161865 0.031693
0.743000 0.141857 0.143363 -0.024172
0.744000 0.159582 0.110623 -0.094613
0.745000 0.161490 0.109157 -0.082617
0.746000 0.157785 0.103671 -0.070743
0.747000 0.142783 0.086704 -0.080347
0.748000 0.139590 0.080635 -0.093070
0.749000 0.169978 0.126301 -0.077580
0.750000 0.222975 0.196903 -0.047844
0.751000 0.200756 0.233052 0.006207
0.752000 0.162032 0.258063 0.063894
0.753000 0.126136 0.260681 0.107982
0.754000 0.128066 0.303504 0.159308
0.755000 0.134915 0.321770 0.168221
0.756000 0.115271 0.325891 0.169837
0.757000 0.107423 0.309325 0.175452
0.758000 0.116179 0.299661 0.163362
0.759000 0.124834 0.278552 0.128819
0.760000 0.104232 0.240844 0.101903
0.761000 0.134395 0.216839 0.053903
0.762000 0.130879 0.177654 0.025348
0.763000 0.116239 0.151841 0.001786
0.764000 0.136535 0.125342 -0.029124
0.765000 0.154353 0.111916 -0.068259
0.766000 0.154129 0.102223 -0.091224
0.767000 0.164581 0.092073 -0.092684
0.768000 0.182614 0.115678 -0.094906
0.769000 0.182920 0.149574 -0.065222
0.770000 0.190875 0.183919 -0.022002
0.771000 0.172463 0.206585 0.017211
0.772000 0.173503 0.249138 0.045614
0.773000 0.170747 0.270079 0.079034
0.774000 0.153015 0.302758 0.137988
0.775000 0.148566 0.339296 0.157347
0.776000 0.151109 0.358362 0.172922
0.777000 0.138886 0.333281 0.182859
0.778000 0.119641 0.328817 0.187484
0.779000 0.109991 0.311029 0.154609
0.780000 0.093481 0.251877 0.139928
0.781000 0.125771 0.224285 0.078090
0.782000 0.136362 0.198456 0.023568
0.783000 0.127665 0.158401 0.001418
0.784000 0.159716 0.137913 -0.051275
0.785000 0.192233 0.160342 -0.070627
0.786000 0.192728 0.143031 -0.075361
0.787000 0.191961 0.119469 -0.090828
0.788000 0.180690 0.110009 -0.090089
0.789000 0.154759 0.124155 -0.059027
0.790000 0.195205 0.161972 -0.050763
0.791000 0.198144 0.213402 -0.004108
0.792000 0.193745 0.266109 0.036348
0.793000 0.191678 0.298159 0.093917
0.794000 0.134515 0.325086 0.178956
0.795000 0.072101 0.318278 0.214283
0.796000 0.071969 0.339723 0.232154
0.797000 0.091140 0.328748 0.220898
0.798000 0.088010 0.325116 0.198556
0.799000 0.116837 0.295842 0.144049
0.800000 0.110121 0.263588 0.138926
0.801000 0.131617 0.249374 0.088704
0.802000 0.086360 0.202265 0.079309
0.803000 0.103775 0.150990 0.033539
0.804000 0.120233 0.124931 -0.017426
0.805000 0.135862 0.111506 -0.063716
0.806000 0.153264 0.118124 -0.069857
0.807000 0.175690 0.123647 -0.073887
0.808000 0.195734 0.142958 -0.084368
0.809000 0.199701 0.166617 -0.070789
0.810000 0.209451 0.181988 -0.042770
0.811000 0.206750 0.231010 0.006139
0.812000 0.207315 0.275844 0.034960
0.813000 0.196769 0.304427 0.088830
0.814000 0.157930 0.325679 0.156158
0.815000 0.156640 0.357866 0.166495
0.816000 0.168748 0.367928 0.174401
0.817000 0.182478 0.363677 0.164528
0.818000 0.115079 0.340871 0.196607
0.819000 0.083976 0.279943 0.172259
0.820000 0.065990 0.241482 0.156286
0.821000 0.091164 0.214838 0.084531
0.822000 0.085736 0.152477 0.038467
0.823000 0.084219 0.117553 0.019601
0.824000 0.129942 0.133112 -0.037781
0.825000 0.139600 0.106863 -0.069645
0.826000 0.149311 0.082800 -0.079139
0.827000 0.158163 0.092756 -0.094455
0.828000 0.195163 0.128912 -0.098884
0.829000 0.189164 0.149042 -0.051841
0.830000 0.188526 0.178839 -0.035374
0.831000 0.196785 0.226446 0.002189
0.832000 0.189239 0.252405 0.039723
0.833000 0.159289 0.253175 0.084048
0.834000 0.111256 0.277970 0.131998
0.835000 0.107627 0.307203 0.178326
0.836000 0.112515 0.327768 0.192654
0.837000 0.108899 0.334657 0.198949
0.838000 0.075239 0.310859 0.217694
0.839000 0.114068 0.286320 0.151369
0.840000 0.095067 0.251365 0.123697
0.841000 0.101350 0.204481 0.082052
0.842000 0.135036 0.188918 0.028242
0.843000 0.124323 0.154581 -0.001540
0.844000 0.112022 0.098681 -0.041569
0.845000 0.119354 0.077811 -0.065940
0.846000 0.132810 0.079522 -0.096076
0.847000 0.151537 0.085351 -0.104112
0.848000 0.172557 0.103567 -0.102174
0.849000 0.192857 0.145807 -0.058779
0.850000 0.225335 0.211136 -0.038525
0.851000 0.167565 0.203043 0.004836
0.852000 0.133492 0.221545 0.068677
0.853000 0.140741 0.250395 0.093734
0.854000 0.127010 0.291108 0.129973
0.855000 0.141647 0.326243 0.157307
0.856000 0.133607 0.343657 0.191084
0.857000 0.125598 0.323067 0.192462
0.858000 0.095289 0.316054 0.193760
0.859000 0.092666 0.299251 0.156374
0.860000 0.088722 0.238754 0.138601
0.861000 0.084064 0.193541 0.085914
0.862000 0.085812 0.175966 0.051276
0.863000 0.122716 0.158168 0.008482
0.864000 0.135486 0.112601 -0.050411
0.865000 0.112530 0.083421 -0.067747
0.866000 0.149329 0.079430 -0.087983
0.867000 0.165377 0.080123 -0.121685
0.868000 0.183866 0.096061 -0.130022
0.869000 0.193569 0.110555 -0.093167
0.870000 0.154367 0.170283 -0.021522
0.871000 0.159460 0.213724 0.019800
0.872000 0.164228 0.237102 0.052391
0.873000 0.140646 0.247144 0.097307
0.874000 0.105695 0.283949 0.148652
0.875000 0.093803 0.305361 0.177832
0.876000 0.074610 0.307311 0.214246
0.877000 0.081372 0.310733 0.207194
0.878000 0.092504 0.324243 0.196952
0.879000 0.106659 0.293727 0.152912
0.880000 0.080615 0.247094 0.146994
0.881000 0.072159 0.201210 0.104613
0.882000 0.080117 0.155696 0.048293
0.883000 0.079125 0.127817 0.009015
0.884000 0.131481 0.121245 -0.041994
0.885000 0.162437 0.108734 -0.070071
0.886000 0.167185 0.082740 -0.112953
0.887000 0.126639 0.062072 -0.104526
0.888000 0.141295 0.069388 -0.098408
0.889000 0.141191 0.098388 -0.049333
0.890000 0.140060 0.168267 -0.006677
0.891000 0.137754 0.223954 0.056498
0.892000 0.135260 0.244104 0.085973
0.893000 0.138348 0.251717 0.103511
0.894000 0.088328 0.266957 0.151328
0.895000 0.101572 0.312726 0.169077
0.896000 0.113392 0.328851 0.191759
0.897000 0.111986 0.325467 0.199734
0.898000 0.098449 0.323473 0.197118
0.899000 0.059147 0.289985 0.193932
0.900000 0.054565 0.230884 0.160959
0.901000 0.049306 0.179323 0.110539
0.902000 0.076302 0.156985 0.042803
0.903000 0.090328 0.131420 0.002807
0.904000 0.124003 0.106841 -0.039675
0.905000 0.123771 0.084578 -0.061652
0.906000 0.116476 0.080044 -0.072326
0.907000 0.131987 0.081837 -0.074363
0.908000 0.142534 0.081649 -0.082052
0.909000 0.151884 0.120051 -0.056098
0.910000 0.155911 0.179044 -0.010897
0.911000 0.161897 0.213258 0.018865
0.912000 0.176059 0.247199 0.055397
0.913000 0.145785 0.261995 0.100502
0.914000 0.105876 0.285673 0.149964
0.915000 0.117305 0.314706 0.163984
0.916000 0.120661 0.312259 0.176809
0.917000 0.103266 0.315499 0.193251
0.918000 0.078920 0.288673 0.182088
0.919000 0.074869 0.280427 0.166863
0.920000 0.077238 0.244592 0.151958
0.921000 0.064446 0.207911 0.124452
0.922000 0.078006 0.177687 0.068796
0.923000 0.089732 0.163139 0.034657
0.924000 0.101550 0.131754 -0.001064
0.925000 0.126589 0.081740 -0.064176
0.926000 0.133087 0.080523 -0.089042
0.927000 0.131341 0.097017 -0.067844
0.928000 0.140117 0.107574 -0.059449
0.929000 0.180294 0.131808 -0.065577
0.930000 0.170699 0.161779 -0.044278
0.931000 0.143730 0.186763 0.013753
0.932000 0.110624 0.222529 0.092029
0.933000 0.124127 0.258851 0.118091
0.934000 0.142746 0.303642 0.128432
0.935000 0.144926 0.338137 0.170327
0.936000 0.118966 0.335710 0.195569
0.937000 0.116483 0.336408 0.194847
0.938000 0.116600 0.322410 0.172230
0.939000 0.116426 0.293051 0.147850
0.940000 0.105067 0.252605 0.135212
0.941000 0.085847 0.228013 0.117589
0.942000 0.093440 0.193868 0.064055
0.943000 0.085856 0.151752 0.024045
0.944000 0.141146 0.128149 -0.025727
0.945000 0.139121 0.117197 -0.047682
0.946000 0.159591 0.113119 -0.085045
0.947000 0.153782 0.101637 -0.073624
0.948000 0.146323 0.097119 -0.065833
0.949000 0.155485 0.117158 -0.052458
0.950000 0.176319 0.171234 -0.039165
0.951000 0.187998 0.217601 0.001648
0.952000 0.174097 0.249848 0.063174
0.953000 0.150203 0.275196 0.103537
0.954000 0.111216 0.306140 0.161682
0.955000 0.107981 0.350333 0.204840
0.956000 0.128093 0.379821 0.225598
0.957000 0.123174 0.372862 0.232923
0.958000 0.101407 0.356911 0.227134
0.959000 0.111727 0.357634 0.206040
0.960000 0.098490 0.302605 0.183982
0.961000 0.102122 0.271924 0.137530
0.962000 0.110161 0.220106 0.073058
0.963000 0.088819 0.178600 0.053674
0.964000 0.117199 0.153166 0.021600
0.965000 0.103054 0.108230 -0.025194
0.966000 0.115485 0.090732 -0.060308
0.967000 0.137011 0.112819 -0.055297
0.968000 0.164463 0.125330 -0.058341
0.969000 0.170560 0.157408 -0.041614
0.970000 0.184805 0.202770 -0.020436
0.971000 0.201992 0.251257 0.028181
0.972000 0.182530 0.274943 0.088657
0.973000 0.168979 0.317332 0.120573
0.974000 0.165828 0.341942 0.143468
0.975000 0.171620 0.366128 0.168852
0.976000 0.160858 0.363240 0.186652
0.977000 0.141945 0.363560 0.186701
0.978000 0.131449 0.342279 0.183605
0.979000 0.103772 0.318809 0.187736
0.980000 0.118127 0.280896 0.140903
0.981000 0.111751 0.253617 0.120924
0.982000 0.115260 0.237929 0.078358
0.983000 0.133665 0.207153 0.047638
0.984000 0.131390 0.157697 0.008315
0.985000 0.120060 0.117154 -0.035617
0.986000 0.127295 0.127460 -0.039551
0.987000 0.132970 0.134398 -0.022334
0.988000 0.170509 0.137346 -0.048897
0.989000 0.234084 0.184596 -0.077154
0.990000 0.233917 0.228034 -0.040715
0.991000 0.208734 0.246634 0.016398
0.992000 0.181006 0.270934 0.080042
0.993000 0.175714 0.317066 0.105793
0.994000 0.158015 0.341336 0.153977
0.995000 0.122287 0.352725 0.208822
0.996000 0.112253 0.357601 0.220917
0.997000 0.133329 0.365090 0.196761
0.998000 0.123154 0.372007 0.216793
0.999000 0.109470 0.337237 0.209104
1.000000 0.103733 0.303046 0.179982
1.001000 0.080307 0.263090 0.148602
1.002000 0.070701 0.202887 0.100308
1.003000 0.089182 0.171967 0.059184
1.004000 0.109411 0.150689 0.018901
1.005000 0.151916 0.109731 -0.071856
1.006000 0.149383 0.098716 -0.080722
1.007000 0.140156 0.109091 -0.059980
1.008000 0.155402 0.110227 -0.056105
1.009000 0.163864 0.135169 -0.058670
1.010000 0.164036 0.163500 -0.035748
1.011000 0.172800 0.195660 -0.002226
1.012000 0.154154 0.234322 0.071415
1.013000 0.142915 0.281859 0.105899
1.014000 0.134313 0.285848 0.127798
1.015000 0.123735 0.317867 0.173435
1.016000 0.121269 0.332698 0.192547
1.017000 0.122298 0.329381 0.179145
1.018000 0.109862 0.323023 0.184492
1.019000 0.091071 0.286670 0.182559
1.020000 0.089562 0.252950 0.142378
1.021000 0.086266 0.220970 0.087797
1.022000 0.098678 0.168103 0.042640
1.023000 0.093825 0.144322 0.025374
1.024000 0.117838 0.127292 -0.021324
1.025000 0.114472 0.081315 -0.065773
1.026000 0.109994 0.066259 -0.068448
1.027000 0.113480 0.073822 -0.058583
1.028000 0.158612 0.103726 -0.079537
1.029000 0.187117 0.145161 -0.076825
1.030000 0.174543 0.169767 -0.036130
1.031000 0.167368 0.178787 -0.000949
1.032000 0.138905 0.227251 0.063119
1.033000 0.121089 0.271167 0.117736
1.034000 0.113993 0.291121 0.150503
1.035000 0.117594 0.316521 0.182913
1.036000 0.110765 0.329231 0.189540
1.037000 0.108779 0.335587 0.188979
1.038000 0.093059 0.319019 0.197466
1.039000 0.085008 0.286172 0.184962
1.040000 0.100611 0.255811 0.130280
1.041000 0.080752 0.224261 0.112593
1.042000 0.094509 0.177438 0.060470
1.043000 0.102973 0.145741 0.019580
1.044000 0.096046 0.126848 -0.017438
1.045000 0.105587 0.073067 -0.051788
1.046000 0.139926 0.071841 -0.089846
1.047000 0.158431 0.095047 -0.106234
1.048000 0.175086 0.090797 -0.105850
1.049000 0.204506 0.134454 -0.086497
1.050000 0.197566 0.175939 -0.053750
1.051000 0.194686 0.208575 -0.002036
1.052000 0.165954 0.242109 0.058913
1.053000 0.152161 0.272935 0.094219
1.054000 0.140720 0.290822 0.115392
1.055000 0.105175 0.309274 0.184577
1.056000 0.091521 0.313522 0.207114
1.057000 0.101617 0.346497 0.209379
1.058000 0.087534 0.331971 0.221307
1.059000 0.054678 0.286704 0.209367
1.060000 0.046896 0.240146 0.153645
1.061000 0.089500 0.230742 0.117027
1.062000 0.115285 0.209209 0.080840
1.063000 0.124681 0.184288 0.030506
1.064000 0.099046 0.131950 0.007013
1.065000 0.109452 0.096782 -0.036618
1.066000 0.126174 0.098707 -0.065301
1.067000 0.144646 0.106237 -0.066392
1.068000 0.177279 0.123884 -0.068595
1.069000 0.184477 0.135308 -0.077019
1.070000 0.175886 0.161897 -0.055735
1.071000 0.174466 0.165121 -0.028599
1.072000 0.166972 0.214065 0.030176
1.073000 0.167643 0.265175 0.064628
1.074000 0.179337 0.298131 0.097916
1.075000 0.201856 0.354536 0.134258
1.076000 0.128485 0.335922 0.181263
1.077000 0.085792 0.311479 0.202833
1.078000 0.063765 0.296508 0.223226
1.079000 0.038253 0.279133 0.207832
1.080000 0.037157 0.253148 0.182302
1.081000 0.031043 0.205419 0.152786
1.082000 0.048852 0.178649 0.101288
1.083000 0.071708 0.146267 0.033967
1.084000 0.093513 0.110268 -0.001064
1.085000 0.105595 0.073284 -0.058589
1.086000 0.114689 0.063982 -0.087282
1.087000 0.119140 0.074229 -0.063489
1.088000 0.113342 0.075175 -0.059706
1.089000 0.153710 0.099208 -0.095504
1.090000 0.183541 0.125979 -0.085437
1.091000 0.183230 0.135043 -0.063575
1.092000 0.147872 0.177995 0.009378
1.093000 0.141702 0.237087 0.063969
1.094000 0.110360 0.269338 0.141680
1.095000 0.084955 0.318128 0.208954
1.096000 0.082961 0.342311 0.222217
1.097000 0.194683 0.401680 0.184040
1.098000 0.208471 0.395066 0.169904
1.099000 0.170838 0.364675 0.162407
1.100000 0.167325 0.344705 0.150617
1.101000 0.180239 0.332722 0.138479
1.102000 0.212627 0.339951 0.090764
1.103000 0.242194 0.334862 0.062514
1.104000 0.275055 0.340465 0.041297
1.105000 0.291306 0.327204 0.021833
1.106000 0.304279 0.355555 0.011104
1.107000 0.331925 0.384686 0.028952
1.108000 0.362806 0.422111 0.041358
1.109000 0.401094 0.485368 0.058952
1.110000 0.410037 0.562354 0.112200
1.111000 0.449792 0.620510 0.151155
1.112000 0.427444 0.679040 0.223767
1.113000 0.434077 0.704920 0.242672
1.114000 0.375905 0.703353 0.310365
1.115000 0.336819 0.695052 0.326394
1.116000 0.288609 0.649405 0.342807
1.117000 0.240003 0.608293 0.350707
1.118000 0.178917 0.571192 0.355453
1.119000 0.113548 0.482067 0.361076
1.120000 0.042837 0.418911 0.349746
1.121000 -0.050956 0.362251 0.379942
1.122000 -0.099136 0.273436 0.359429
1.123000 -0.176940 0.188866 0.359949
1.124000 -0.250331 0.133487 0.351433
1.125000 -0.290511 0.083757 0.349485
1.126000 -0.264112 0.066158 0.312144
1.127000 -0.235786 0.095218 0.295477
1.128000 -0.199920 0.109654 0.276500
1.129000 -0.149256 0.135040 0.259839
1.130000 -0.118697 0.146078 0.246270
1.131000 -0.107327 0.134755 0.230574
1.132000 -0.119754 0.151626 0.239001
1.133000 -0.084659 0.189614 0.235748
1.134000 -0.067359 0.208424 0.247914
1.135000 -0.050818 0.243588 0.278352
1.136000 -0.068539 0.251148 0.284985
1.137000 -0.032679 0.274010 0.263070
1.138000 -0.008243 0.283536 0.259511
1.139000 -0.002248 0.253053 0.240403
1.140000 -0.010466 0.213765 0.198754
1.141000 -0.038612 0.177334 0.179880
1.142000 -0.029858 0.128591 0.113369
1.143000 -0.002186 0.067556 0.044432
1.144000 -0.000891 0.035465 0.021284
1.145000 0.014681 0.031863 -0.014123
1.146000 0.044462 0.064758 -0.013489
1.147000 0.072220 0.086906 -0.001970
1.148000 0.080581 0.073207 -0.021773
1.149000 0.108347 0.091130 -0.051652
1.150000 0.107205 0.114507 -0.035673
1.151000 0.144535 0.157756 -0.013266
1.152000 0.150187 0.204917 0.052967
1.153000 0.139632 0.271092 0.110553
1.154000 0.122542 0.316444 0.153254
1.155000 0.125052 0.351428 0.209597
1.156000 0.105794 0.339796 0.218364
1.157000 0.095857 0.357755 0.234207
1.158000 0.077429 0.360315 0.243388
1.159000 0.040194 0.332950 0.266123
1.160000 0.049728 0.295160 0.230864
1.161000 0.027488 0.274860 0.217948
1.162000 0.091355 0.258258 0.121621
1.163000 0.101523 0.220332 0.081310
1.164000 0.126508 0.185441 0.035921
1.165000 0.136077 0.152623 -0.007932
1.166000 0.118149 0.143885 -0.012849
1.167000 0.116742 0.113207 -0.030214
1.168000 0.124079 0.112715 -0.028769
1.169000 0.162639 0.148134 -0.044219
1.170000 0.169952 0.194601 -0.000538
1.171000 0.176744 0.232192 0.027197
1.172000 0.181335 0.275117 0.081719
1.173000 0.185271 0.320557 0.121821
1.174000 0.167267 0.359807 0.161784
1.175000 0.142507 0.382549 0.209902
1.176000 0.151567 0.387479 0.215247
1.177000 0.139697 0.385125 0.225795
1.178000 0.118279 0.370728 0.225150
1.179000 0.095994 0.351607 0.221844
1.180000 0.113007 0.324649 0.187608
1.181000 0.107870 0.283607 0.162632
1.182000 0.111319 0.250041 0.114130
1.183000 0.106736 0.206145 0.062679
1.184000 0.137242 0.195534 0.031133
1.185000 0.142555 0.167638 0.004122
1.186000 0.152515 0.154262 -0.037884
1.187000 0.172025 0.155990 -0.057613
1.188000 0.181971 0.164118 -0.052723
1.189000 0.211236 0.181049 -0.047263
1.190000 0.209832 0.215501 -0.010330
1.191000 0.203404 0.250171 0.014264
1.192000 0.188981 0.285813 0.058620
1.193000 0.186343 0.326513 0.122387
1.194000 0.182981 0.360424 0.161545
1.195000 0.170816 0.414020 0.198994
1.196000 0.171092 0.423409 0.220111
1.197000 0.157933 0.417559 0.234035
1.198000 0.149850 0.405048 0.229871
1.199000 0.141895 0.402123 0.221691
1.200000 0.138381 0.362052 0.196409
1.201000 0.113885 0.300588 0.162880
1.202000 0.093305 0.253574 0.119617
1.203000 0.112110 0.214734 0.070829
1.204000 0.131884 0.194488 0.043501
1.205000 0.160992 0.190666 -0.003954
1.206000 0.202640 0.208892 -0.030066
1.207000 0.206123 0.183964 -0.037126
1.208000 0.202466 0.185280 -0.051936
1.209000 0.209489 0.192974 -0.051867
1.210000 0.195596 0.208087 -0.002171
1.211000 0.201603 0.254846 0.027062
1.212000 0.215059 0.307200 0.057380
1.213000 0.221150 0.342896 0.099629
1.214000 0.222616 0.374108 0.122289
1.215000 0.224101 0.426902 0.170811
1.216000 0.211380 0.433760 0.202645
1.217000 0.175556 0.412849 0.217060
1.218000 0.130779 0.398723 0.236038
1.219000 0.135894 0.397680 0.246626
1.220000 0.122649 0.359226 0.221563
1.221000 0.101357 0.316406 0.180535
1.222000 0.102868 0.253912 0.121374
1.223000 0.117353 0.211288 0.076548
1.224000 0.146225 0.201078 0.025713
1.225000 0.167781 0.180330 -0.024194
1.226000 0.187204 0.160748 -0.048105
1.227000 0.188534 0.169874 -0.046942
1.228000 0.197468 0.191002 -0.043787
1.229000 0.213120 0.196302 -0.038382
1.230000 0.204675 0.217317 -0.003913
1.231000 0.219506 0.259427 0.003915
1.232000 0.194054 0.301412 0.083067
1.233000 0.180180 0.327073 0.134128
1.234000 0.168606 0.354395 0.149085
1.235000 0.180784 0.383760 0.180292
1.236000 0.180677 0.410681 0.225847
1.237000 0.142824 0.416408 0.245504
1.238000 0.119835 0.402102 0.241033
1.239000 0.173600 0.409894 0.216438
1.240000 0.178754 0.387407 0.188706
1.241000 0.143505 0.327951 0.149857
1.242000 0.109198 0.263464 0.126305
1.243000 0.116924 0.233128 0.098795
1.244000 0.134126 0.233981 0.060781
1.245000 0.129693 0.201556 0.037869
1.246000 0.182113 0.194365 -0.015389
1.247000 0.225847 0.193977 -0.056620
1.248000 0.221835 0.196981 -0.061569
1.249000 0.233933 0.204719 -0.054506
1.250000 0.249921 0.229748 -0.038645
1.251000 0.261346 0.267798 -0.029481
1.252000 0.218583 0.299264 0.067341
1.253000 0.170396 0.330885 0.139849
1.254000 0.157994 0.366279 0.166412
1.255000 0.186312 0.409322 0.195629
1.256000 0.192066 0.440945 0.235045
1.257000 0.159178 0.453005 0.258664
1.258000 0.169400 0.447862 0.241941
1.259000 0.190765 0.440628 0.236599
1.260000 0.203367 0.432897 0.201351
1.261000 0.168268 0.378404 0.180389
1.262000 0.157852 0.311703 0.131317
1.263000 0.177173 0.266836 0.069996
1.264000 0.180648 0.250296 0.030295
1.265000 0.204473 0.218821 -0.014407
1.266000 0.207023 0.183067 -0.040983
1.267000 0.213318 0.174077 -0.072986
1.268000 0.231113 0.180054 -0.088368
1.269000 0.262311 0.197402 -0.086090
1.270000 0.274216 0.221689 -0.056584
1.271000 0.258518 0.258731 -0.036414
1.272000 0.276688 0.315743 0.020860
1.273000 0.282240 0.371019 0.074850
1.274000 0.256821 0.392915 0.104962
1.275000 0.229574 0.408006 0.151828
1.276000 0.215208 0.434916 0.207788
1.277000 0.199726 0.453288 0.214829
1.278000 0.200393 0.445065 0.220309
1.279000 0.185299 0.441410 0.248444
1.280000 0.188050 0.436090 0.209324
1.281000 0.199472 0.402567 0.172922
1.282000 0.245914 0.369867 0.101543
1.283000 0.221455 0.308157 0.054972
1.284000 0.196758 0.261627 0.028335
1.285000 0.208278 0.214732 -0.014753
1.286000 0.228066 0.210880 -0.052868
1.287000 0.248287 0.225086 -0.058265
1.288000 0.260455 0.224589 -0.054251
1.289000 0.289251 0.253619 -0.052844
1.290000 0.276546 0.274261 -0.038275
1.291000 0.289172 0.298794 -0.015433
1.292000 0.300891 0.345290 0.028876
1.293000 0.289583 0.393842 0.072239
1.294000 0.255838 0.417387 0.128505
1.295000 0.233005 0.432089 0.172504
1.296000 0.245205 0.465801 0.190455
1.297000 0.230984 0.484851 0.211401
1.298000 0.229169 0.470856 0.220906
1.299000 0.220739 0.459044 0.219734
1.300000 0.221205 0.439589 0.179591
1.301000 0.222559 0.405488 0.163432
1.302000 0.225565 0.379313 0.132690
1.303000 0.233011 0.346990 0.081308
1.304000 0.249887 0.329516 0.043894
1.305000 0.262082 0.314123 0.027501
1.306000 0.228064 0.256539 0.006891
1.307000 0.253812 0.264545 -0.023068
1.308000 0.277802 0.270480 -0.032566
1.309000 0.302334 0.282362 -0.036711
1.310000 0.298750 0.308230 -0.029145
1.311000 0.317838 0.336281 -0.008873
1.312000 0.311722 0.365877 0.044387
1.313000 0.291820 0.407119 0.082227
1.314000 0.295544 0.443709 0.125066
1.315000 0.261059 0.445322 0.170606
1.316000 0.210016 0.455278 0.213606
1.317000 0.193090 0.468646 0.235164
1.318000 0.222021 0.466811 0.228151
1.319000 0.205173 0.458654 0.227099
1.320000 0.189861 0.449169 0.228670
1.321000 0.194781 0.432660 0.218440
1.322000 0.227113 0.423221 0.169697
1.323000 0.225198 0.364983 0.101877
1.324000 0.208719 0.299492 0.067210
1.325000 0.220025 0.255513 0.021802
1.326000 0.232569 0.249713 -0.030848
1.327000 0.264167 0.248167 -0.046225
1.328000 0.261873 0.252162 -0.023719
1.329000 0.292036 0.289765 -0.035898
1.330000 0.323103 0.328268 -0.031731
1.331000 0.314991 0.344290 0.017726
1.332000 0.302602 0.382952 0.058983
1.333000 0.284088 0.408424 0.094335
1.334000 0.260418 0.429487 0.146483
1.335000 0.233653 0.469914 0.220582
1.336000 0.234063 0.493847 0.223121
1.337000 0.198746 0.487569 0.258210
1.338000 0.197696 0.464604 0.250644
1.339000 0.186007 0.465890 0.259211
1.340000 0.141443 0.446061 0.269089
1.341000 0.143232 0.395603 0.229267
1.342000 0.172875 0.375626 0.175240
1.343000 0.220564 0.359579 0.093940
1.344000 0.223801 0.300786 0.053863
1.345000 0.248980 0.269428 -0.003738
1.346000 0.241352 0.239901 -0.043287
1.347000 0.251863 0.217636 -0.060119
1.348000 0.251438 0.210701 -0.060302
1.349000 0.236716 0.229504 -0.037945
1.350000 0.232880 0.258060 -0.005061
1.351000 0.250696 0.285242 0.014856
1.352000 0.246519 0.320968 0.054387
1.353000 0.237891 0.366519 0.085764
1.354000 0.241599 0.386257 0.112999
1.355000 0.239338 0.410367 0.154416
1.356000 0.240762 0.450220 0.173603
1.357000 0.235913 0.451690 0.185648
1.358000 0.209031 0.431134 0.204968
1.359000 0.175529 0.411992 0.210753
1.360000 0.137659 0.373573 0.196379
1.361000 0.129356 0.324167 0.178901
1.362000 0.150869 0.291174 0.109384
1.363000 0.170614 0.276220 0.067394
1.364000 0.209991 0.269458 0.041073
1.365000 0.227843 0.237860 -0.017069
1.366000 0.190991 0.184005 -0.045148
1.367000 0.177951 0.155262 -0.048844
1.368000 0.188766 0.160679 -0.052974
1.369000 0.202644 0.173666 -0.062969
1.370000 0.221661 0.181430 -0.063713
1.371000 0.228637 0.218237 -0.024888
1.372000 0.221317 0.266691 0.004852
1.373000 0.207088 0.299908 0.064882
1.374000 0.200630 0.335921 0.120361
1.375000 0.194834 0.369223 0.145656
1.376000 0.179083 0.399867 0.192349
1.377000 0.148844 0.376128 0.211135
1.378000 0.135067 0.364967 0.203452
1.379000 0.130034 0.354907 0.191703
1.380000 0.132115 0.337280 0.181422
1.381000 0.109710 0.285808 0.148933
1.382000 0.098165 0.244916 0.105049
1.383000 0.116069 0.212978 0.061838
1.384000 0.156019 0.181440 0.008004
1.385000 0.143392 0.151997 -0.020712
1.386000 0.131906 0.127348 -0.041148
1.387000 0.164256 0.124028 -0.061717
1.388000 0.157928 0.114294 -0.071329
1.389000 0.158711 0.118675 -0.081771
1.390000 0.176939 0.150169 -0.049774
1.391000 0.182206 0.180976 -0.023858
1.392000 0.164989 0.216325 0.022259
1.393000 0.171405 0.279183 0.071654
1.394000 0.180358 0.301591 0.108934
1.395000 0.141813 0.301166 0.134176
1.396000 0.164011 0.345428 0.143669
1.397000 0.152993 0.352836 0.191926
1.398000 0.099480 0.345970 0.216994
1.399000 0.094070 0.327896 0.196675
1.400000 0.105607 0.312277 0.176055
1.401000 0.113435 0.281474 0.135220
1.402000 0.126906 0.278119 0.119350
1.403000 0.121889 0.208753 0.071394
1.404000 0.084908 0.136300 0.012911
1.405000 0.115113 0.115355 -0.030815
1.406000 0.149111 0.088048 -0.077352
1.407000 0.144979 0.080536 -0.099161
1.408000 0.144476 0.077407 -0.106975
1.409000 0.182122 0.095481 -0.108516
1.410000 0.188321 0.136195 -0.089985
1.411000 0.160709 0.148341 -0.043361
1.412000 0.184360 0.178024 -0.029565
1.413000 0.196472 0.235113 0.012787
1.414000 0.197989 0.292845 0.057251
1.415000 0.174162 0.295921 0.108812
1.416000 0.125757 0.309429 0.161784
1.417000 0.092960 0.328158 0.194475
1.418000 0.101042 0.330524 0.214983
1.419000 0.132738 0.340619 0.189785
1.420000 0.107202 0.306884 0.164889
1.421000 0.095375 0.267784 0.135240
1.422000 0.094473 0.219612 0.101081
1.423000 0.107851 0.177590 0.053009
1.424000 0.082053 0.147534 0.029862
1.425000 0.104783 0.110966 -0.029315
1.426000 0.118345 0.066755 -0.073347
1.427000 0.149143 0.069526 -0.115958
1.428000 0.170590 0.081498 -0.119004
1.429000 0.191626 0.093917 -0.122286
1.430000 0.191498 0.115163 -0.107150
1.431000 0.161567 0.148022 -0.044903
1.432000 0.146074 0.170159 0.008916
1.433000 0.130964 0.217208 0.072492
1.434000 0.143034 0.277739 0.096623
1.435000 0.161909 0.302650 0.117975
1.436000 0.143599 0.330326 0.167541
1.437000 0.118599 0.330813 0.172033
1.438000 0.132998 0.313360 0.153781
1.439000 0.135577 0.307342 0.151659
1.440000 0.147070 0.316098 0.133065
1.441000 0.161376 0.293376 0.093784
1.442000 0.143061 0.248739 0.088640
1.443000 0.133838 0.200573 0.051289
1.444000 0.090847 0.162184 0.034521
1.445000 0.077132 0.137761 0.031747
1.446000 0.092697 0.100174 -0.005113
1.447000 0.114560 0.103399 -0.042478
1.448000 0.105688 0.108218 -0.026474
1.449000 0.111156 0.100123 -0.033417
1.450000 0.143513 0.123752 -0.046936
1.451000 0.130153 0.152089 -0.015797
1.452000 0.153562 0.182226 0.010148
1.453000 0.151326 0.230374 0.046791
1.454000 0.142230 0.268660 0.092829
1.455000 0.140867 0.296338 0.141054
1.456000 0.156208 0.357599 0.165641
1.457000 0.129935 0.340581 0.183749
1.458000 0.109599 0.332606 0.205588
1.459000 0.101917 0.327142 0.193468
1.460000 0.110965 0.313770 0.166388
1.461000 0.112981 0.283228 0.143580
1.462000 0.104093 0.249147 0.122812
1.463000 0.112985 0.218446 0.068109
1.464000 0.137852 0.192504 0.025278
1.465000 0.136013 0.143402 -0.016579
1.466000 0.130698 0.105897 -0.053086
1.467000 0.126805 0.097402 -0.063475
1.468000 0.125542 0.091485 -0.051354
1.469000 0.128349 0.092090 -0.062801
1.470000 0.164160 0.116828 -0.086317
1.471000 0.166725 0.152724 -0.044343
1.472000 0.192517 0.203017 -0.011610
1.473000 0.204895 0.272614 0.047946
1.474000 0.201221 0.316114 0.077906
1.475000 0.151494 0.309780 0.122050
1.476000 0.136209 0.306341 0.151647
1.477000 0.102046 0.309203 0.175688
1.478000 0.082555 0.306194 0.189093
1.479000 0.112337 0.320557 0.188391
1.480000 0.117876 0.324790 0.171136
1.481000 0.135850 0.301982 0.133398
1.482000 0.117046 0.261256 0.125692
1.483000 0.106342 0.219418 0.085150
1.484000 0.107863 0.168116 0.024164
1.485000 0.120312 0.136911 -0.011661
1.486000 0.109311 0.081803 -0.044819
1.487000 0.122948 0.093515 -0.071787
1.488000 0.138455 0.092214 -0.072958
1.489000 0.169591 0.110214 -0.077564
1.490000 0.187230 0.150521 -0.062187
1.491000 0.187161 0.186623 -0.038005
1.492000 0.204265 0.223294 0.002168
1.493000 0.183685 0.260401 0.047487
1.494000 0.163120 0.289326 0.084577
1.495000 0.153170 0.294770 0.125755
1.496000 0.137240 0.333112 0.175365
1.497000 0.127955 0.345067 0.178535
1.498000 0.118445 0.333453 0.193798
1.499000 0.117330 0.334104 0.210412
1.500000 0.069620 0.300438 0.201824
1.501000 0.061675 0.255413 0.165652
1.502000 0.071127 0.235150 0.143529
1.503000 0.087170 0.202834 0.082325
1.504000 0.100966 0.166042 0.024489
1.505000 0.130493 0.137939 -0.013679
1.506000 0.134256 0.104610 -0.042803
1.507000 0.135675 0.118705 -0.048346
1.508000 0.151753 0.108373 -0.067783
1.509000 0.159576 0.113552 -0.073874
1.510000 0.173718 0.136047 -0.075268
1.511000 0.163185 0.155512 -0.034300
1.512000 0.158652 0.184197 0.015889
1.513000 0.157155 0.237810 0.057551
1.514000 0.159192 0.287010 0.097132
1.515000 0.144673 0.303097 0.141288
1.516000 0.138714 0.336360 0.183036
1.517000 0.124754 0.357179 0.197932
1.518000 0.120123 0.348866 0.200847
1.519000 0.099533 0.329217 0.216663
1.520000 0.086608 0.317664 0.206224
1.521000 0.081927 0.289388 0.174554
1.522000 0.067176 0.242651 0.141073
1.523000 0.107594 0.206761 0.080916
1.524000 0.116378 0.185826 0.030356
1.525000 0.131833 0.158932 -0.004122
1.526000 0.137545 0.116951 -0.041375
1.527000 0.149334 0.113003 -0.073732
1.528000 0.155495 0.114637 -0.080867
1.529000 0.181943 0.121416 -0.079851
1.530000 0.193744 0.137476 -0.079832
1.531000 0.206212 0.178161 -0.062186
1.532000 0.227788 0.212802 -0.034698
1.533000 0.187624 0.244140 0.038635
1.534000 0.183163 0.293199 0.076026
1.535000 0.164179 0.305675 0.117516
1.536000 0.135228 0.318897 0.164120
1.537000 0.128492 0.333956 0.176579
1.538000 0.160776 0.393918 0.195018
1.539000 0.158358 0.376569 0.206100
1.540000 0.114070 0.336167 0.191526
1.541000 0.089314 0.267951 0.142494
1.542000 0.101574 0.237314 0.109867
1.543000 0.124216 0.217713 0.070295
1.544000 0.107051 0.201102 0.050907
1.545000 0.100477 0.160890 0.030618
1.546000 0.135899 0.106808 -0.040171
1.547000 0.135709 0.107988 -0.063474
1.548000 0.128414 0.114135 -0.063162
1.549000 0.141265 0.116167 -0.035297
1.550000 0.129544 0.151623 -0.004030
1.551000 0.164601 0.183449 -0.020960
1.552000 0.232010 0.208116 -0.035208
1.553000 0.230493 0.252167 0.006988
1.554000 0.213106 0.319911 0.073561
1.555000 0.193237 0.327682 0.110005
1.556000 0.162204 0.346224 0.177079
1.557000 0.104549 0.346032 0.214430
1.558000 0.121426 0.373318 0.218948
1.559000 0.111027 0.368675 0.247296
1.560000 0.079683 0.341450 0.229421
1.561000 0.081185 0.306016 0.203697
1.562000 0.065386 0.270061 0.185799
1.563000 0.086669 0.257078 0.140861
1.564000 0.092695 0.209039 0.072704
1.565000 0.112863 0.170605 0.014131
1.566000 0.160211 0.138130 -0.037296
1.567000 0.167086 0.134389 -0.073261
1.568000 0.158717 0.141003 -0.054936
1.569000 0.147386 0.125037 -0.048080
1.570000 0.153274 0.125968 -0.044877
1.571000 0.115081 0.144576 -0.002837
1.572000 0.163259 0.203339 0.007100
1.573000 0.182885 0.251233 0.049900
1.574000 0.179782 0.294414 0.089591
1.575000 0.162980 0.315138 0.111423
1.576000 0.144230 0.346416 0.181756
1.577000 0.133993 0.358937 0.206298
1.578000 0.124446 0.363311 0.194382
1.579000 0.137707 0.356926 0.191125
1.580000 0.117457 0.353391 0.227888
1.581000 0.095124 0.333622 0.195258
1.582000 0.077471 0.291521 0.172573
1.583000 0.129878 0.241543 0.089673
1.584000 0.136755 0.205796 0.037027
1.585000 0.072360 0.130195 0.018918
1.586000 0.110448 0.107671 -0.029804
1.587000 0.146243 0.138803 -0.033752
1.588000 0.124233 0.136218 -0.028335
1.589000 0.128877 0.102272 -0.055162
1.590000 0.165791 0.118565 -0.068161
1.591000 0.146457 0.160761 -0.018300
1.592000 0.179024 0.204404 -0.004605
1.593000 0.187933 0.242601 0.038044
1.594000 0.180023 0.288082 0.076656
1.595000 0.172329 0.317393 0.112902
1.596000 0.159939 0.332186 0.157809
1.597000 0.146484 0.352317 0.167532
1.598000 0.142869 0.372579 0.195115
1.599000 0.120211 0.356333 0.217762
1.600000 0.098217 0.335079 0.205780
1.601000 0.095341 0.306418 0.175141
1.602000 0.080670 0.261834 0.164267
1.603000 0.109996 0.226606 0.081703
1.604000 0.128413 0.190940 0.025584
1.605000 0.144573 0.166915 0.002485
1.606000 0.163129 0.160604 -0.031598
1.607000 0.166304 0.160565 -0.051719
1.608000 0.160220 0.123520 -0.061674
1.609000 0.166812 0.114671 -0.073097
1.610000 0.175326 0.125443 -0.089989
1.611000 0.161103 0.149412 -0.040921
1.612000 0.181095 0.200196 0.001005
1.613000 0.163184 0.235425 0.039143
1.614000 0.190675 0.291114 0.056849
1.615000 0.168541 0.288188 0.101342
1.616000 0.131617 0.319503 0.167851
1.617000 0.109258 0.342445 0.202199
1.618000 0.132976 0.372746 0.203413
1.619000 0.149843 0.361159 0.196975
1.620000 0.108474 0.323786 0.182010
1.621000 0.124107 0.307050 0.135135
1.622000 0.136878 0.276152 0.125421
1.623000 0.129193 0.247694 0.089641
1.624000 0.117845 0.210717 0.056219
1.625000 0.120566 0.172725 0.021318
1.626000 0.121775 0.135352 -0.011791
1.627000 0.119538 0.109582 -0.056891
1.628000 0.130187 0.101790 -0.063091
1.629000 0.121509 0.094215 -0.047992
1.630000 0.160682 0.111794 -0.089876
1.631000 0.164304 0.126507 -0.071078
1.632000 0.191088 0.175823 -0.035246
1.633000 0.212877 0.255220 0.016182
1.634000 0.182563 0.301144 0.077232
1.635000 0.149146 0.307959 0.141040
1.636000 0.133731 0.339091 0.180065
1.637000 0.129726 0.348486 0.176945
1.638000 0.117596 0.332324 0.182238
1.639000 0.118448 0.330267 0.189987
1.640000 0.101043 0.313959 0.182499
1.641000 0.094398 0.283877 0.150430
1.642000 0.094670 0.244889 0.135378
1.643000 0.090160 0.208006 0.089801
1.644000 0.101396 0.185437 0.046791
1.645000 0.123818 0.149551 0.007820
1.646000 0.122833 0.123855 -0.029873
1.647000 0.081683 0.104559 -0.015710
1.648000 0.115500 0.085630 -0.045099
1.649000 0.134394 0.095085 -0.060052
1.650000 0.131432 0.115155 -0.069484
1.651000 0.151644 0.139534 -0.029618
1.652000 0.183826 0.196631 -0.017691
1.653000 0.199702 0.231220 -0.006774
1.654000 0.189810 0.291256 0.070176
1.655000 0.217921 0.329959 0.087907
1.656000 0.179309 0.332765 0.128729
1.657000 0.159985 0.342368 0.156967
1.658000 0.151796 0.352494 0.180546
1.659000 0.151376 0.352448 0.163155
1.660000 0.111922 0.321348 0.189488
1.661000 0.060656 0.292261 0.220168
1.662000 0.044547 0.256484 0.183666
1.663000 0.064943 0.222202 0.122925
1.664000 0.074974 0.182069 0.082838
1.665000 0.112818 0.156778 0.031444
1.666000 0.123473 0.137032 -0.020575
1.667000 0.120852 0.107303 -0.046260
1.668000 0.152834 0.104676 -0.067619
1.669000 0.184545 0.121496 -0.086338
1.670000 0.190264 0.143702 -0.077929
1.671000 0.168366 0.155132 -0.033206
1.672000 0.169996 0.189010 -0.016603
1.673000 0.177612 0.233201 0.015689
1.674000 0.188214 0.274593 0.064942
1.675000 0.184721 0.299818 0.092444
1.676000 0.172516 0.356976 0.151319
1.677000 0.174238 0.365477 0.171312
1.678000 0.133371 0.360765 0.208989
1.679000 0.137910 0.368190 0.189730
1.680000 0.116903 0.349295 0.211135
1.681000 0.101893 0.315027 0.193528
1.682000 0.068498 0.263666 0.163466
1.683000 0.051971 0.217506 0.128456
1.684000 0.070212 0.181018 0.092159
1.685000 0.107030 0.183260 0.041197
1.686000 0.116041 0.150172 -0.005269
1.687000 0.128361 0.108691 -0.046429
1.688000 0.137896 0.093546 -0.055204
1.689000 0.150117 0.127443 -0.058962
1.690000 0.177818 0.142085 -0.056027
1.691000 0.164828 0.152185 -0.028122
1.692000 0.169096 0.204396 -0.000471
1.693000 0.168130 0.243110 0.046944
1.694000 0.177206 0.281509 0.088029
1.695000 0.168430 0.312586 0.118080
1.696000 0.164340 0.341980 0.142765
1.697000 0.171947 0.367010 0.180025
1.698000 0.133883 0.360553 0.210479
1.699000 0.091965 0.351824 0.219204
1.700000 0.116801 0.359248 0.213693
1.701000 0.117264 0.332428 0.185612
1.702000 0.087207 0.282080 0.158960
1.703000 0.112682 0.257223 0.109935
1.704000 0.155527 0.245396 0.068781
1.705000 0.155849 0.236723 0.051677
1.706000 0.166331 0.197622 -0.004774
1.707000 0.118729 0.109866 -0.048992
1.708000 0.143311 0.111890 -0.062854
1.709000 0.160341 0.133722 -0.046593
1.710000 0.152913 0.129380 -0.046639
1.711000 0.167814 0.151331 -0.045207
1.712000 0.165705 0.197511 0.004287
1.713000 0.145316 0.239539 0.087298
1.714000 0.136731 0.296300 0.140216
1.715000 0.145227 0.339436 0.160484
1.716000 0.133374 0.344891 0.180733
1.717000 0.150859 0.372844 0.201908
1.718000 0.157764 0.396572 0.226248
1.719000 0.127989 0.378493 0.223738
1.720000 0.105706 0.360765 0.213703
1.721000 0.110998 0.324264 0.190651
1.722000 0.131288 0.305863 0.158753
1.723000 0.119191 0.265272 0.109304
1.724000 0.121396 0.217786 0.050125
1.725000 0.137156 0.189492 0.020002
1.726000 0.167273 0.167183 -0.022447
1.727000 0.161734 0.136650 -0.052623
1.728000 0.170123 0.128860 -0.079560
1.729000 0.164870 0.121561 -0.077198
1.730000 0.179075 0.126976 -0.071898
1.731000 0.188655 0.170578 -0.046396
1.732000 0.229646 0.253500 -0.018720
1.733000 0.263961 0.312764 0.019022
1.734000 0.242090 0.340367 0.074748
1.735000 0.191952 0.330500 0.122967
1.736000 0.157597 0.341388 0.159918
1.737000 0.158950 0.387055 0.198116
1.738000 0.153683 0.407222 0.232336
1.739000 0.129297 0.378352 0.226429
1.740000 0.110248 0.347585 0.204188
1.741000 0.098121 0.315844 0.176516
1.742000 0.099333 0.280549 0.164195
1.743000 0.117883 0.232876 0.094630
1.744000 0.121577 0.195633 0.039376
1.745000 0.126970 0.163020 -0.008593
1.746000 0.129675 0.134973 -0.025978
1.747000 0.125047 0.113095 -0.029563
1.748000 0.136735 0.109466 -0.047161
1.749000 0.166713 0.129973 -0.086454
1.750000 0.187428 0.136622 -0.080027
1.751000 0.188611 0.164405 -0.037241
1.752000 0.190455 0.202845 -0.022144
1.753000 0.190331 0.233962 0.005799
1.754000 0.188918 0.271955 0.050568
1.755000 0.198026 0.282588 0.062943
1.756000 0.197141 0.315810 0.100739
1.757000 0.188186 0.367315 0.148082
1.758000 0.161629 0.383667 0.192306
1.759000 0.132502 0.356298 0.208127
1.760000 0.086058 0.316403 0.216159
1.761000 0.067454 0.297160 0.188855
1.762000 0.078104 0.260533 0.137165
1.763000 0.098030 0.223787 0.095916
1.764000 0.101994 0.179182 0.057028
1.765000 0.112383 0.173204 0.030589
1.766000 0.136664 0.154208 -0.029770
1.767000 0.166780 0.126832 -0.066845
1.768000 0.155082 0.091813 -0.078441
1.769000 0.161306 0.097274 -0.093919
1.770000 0.173080 0.102935 -0.111156
1.771000 0.172264 0.112999 -0.091758
1.772000 0.150589 0.145601 -0.023836
1.773000 0.145508 0.192347 0.026124
1.774000 0.151705 0.233163 0.050253
1.775000 0.176848 0.273690 0.072279
1.776000 0.158393 0.299348 0.120304
1.777000 0.116087 0.325451 0.170771
1.778000 0.127560 0.333131 0.172384
1.779000 0.136271 0.322552 0.159366
1.780000 0.096364 0.305278 0.177194
1.781000 0.083573 0.274352 0.164974
1.782000 0.086721 0.248925 0.133506
1.783000 0.087471 0.203346 0.072612
1.784000 0.086216 0.157538 0.039635
1.785000 0.093295 0.130509 0.014901
1.786000 0.084743 0.105722 -0.015496
1.787000 0.068093 0.055002 -0.053604
1.788000 0.110485 0.044337 -0.087866
1.789000 0.145354 0.069008 -0.110593
1.790000 0.163698 0.074838 -0.123596
1.791000 0.174780 0.102164 -0.086591
1.792000 0.188503 0.162520 -0.059298
1.793000 0.207408 0.203023 -0.039705
1.794000 0.170164 0.224673 0.042033
1.795000 0.134599 0.246955 0.079695
1.796000 0.152491 0.264886 0.079590
1.797000 0.141366 0.294706 0.128270
1.798000 0.148744 0.316202 0.140290
1.799000 0.134882 0.317243 0.144537
1.800000 0.086204 0.296908 0.186266
1.801000 0.089499 0.291344 0.172290
1.802000 0.116119 0.276318 0.120160
1.803000 0.081918 0.216219 0.101457
1.804000 0.068944 0.161318 0.077351
1.805000 0.090623 0.137525 0.016329
1.806000 0.100812 0.110268 -0.035287
1.807000 0.107759 0.057377 -0.079807
1.808000 0.133038 0.056568 -0.104634
1.809000 0.159039 0.082572 -0.114336
1.810000 0.171140 0.087842 -0.108784
1.811000 0.195724 0.119752 -0.097753
1.812000 0.193067 0.152248 -0.070354
1.813000 0.236658 0.237991 -0.031042
1.814000 0.190354 0.257733 0.061328
1.815000 0.124314 0.246148 0.092721
1.816000 0.108561 0.258940 0.108623
1.817000 0.129345 0.306378 0.155479
1.818000 0.098011 0.304519 0.193522
1.819000 0.084470 0.291290 0.166585
1.820000 0.087345 0.284959 0.166588
1.821000 0.083267 0.276342 0.174641
1.822000 0.088149 0.257950 0.129478
1.823000 0.087647 0.232202 0.108601
1.824000 0.102531 0.178230 0.058100
1.825000 0.086384 0.140060 0.028053
1.826000 0.114353 0.124126 -0.033679
1.827000 0.160113 0.089887 -0.096142
1.828000 0.171449 0.071042 -0.128843
1.829000 0.162489 0.054193 -0.144344
1.830000 0.158186 0.046731 -0.134576
1.831000 0.162969 0.067029 -0.115084
1.832000 0.166339 0.104377 -0.097339
1.833000 0.183196 0.154268 -0.052377
1.834000 0.154869 0.198022 0.026927
1.835000 0.157670 0.233683 0.054253
1.836000 0.125553 0.251924 0.094972
1.837000 0.125759 0.268508 0.125860
1.838000 0.125912 0.290385 0.140016
1.839000 0.150104 0.333919 0.142900
1.840000 0.163626 0.346638 0.160918
1.841000 0.174741 0.341363 0.144861
1.842000 0.150788 0.295816 0.110373
1.843000 0.149353 0.275025 0.088663
1.844000 0.181947 0.274709 0.059547
1.845000 0.235309 0.272389 0.003979
1.846000 0.268244 0.280858 -0.026851
1.847000 0.290087 0.269153 -0.037219
1.848000 0.274373 0.278909 -0.025075
1.849000 0.308548 0.320988 -0.025068
1.850000 0.353740 0.358397 -0.016482
1.851000 0.378728 0.417516 0.011299
1.852000 0.386701 0.485543 0.060551
1.853000 0.410671 0.550562 0.114897
1.854000 0.442667 0.627971 0.176456
1.855000 0.476443 0.712435 0.209747
1.856000 0.463142 0.719878 0.234589
1.857000 0.438108 0.709327 0.254862
1.858000 0.390324 0.701408 0.287286
1.859000 0.338133 0.677762 0.313567
1.860000 0.254399 0.626756 0.358907
1.861000 0.195141 0.556572 0.340530
1.862000 0.155608 0.493640 0.302953
1.863000 0.088965 0.398111 0.278253
1.864000 0.017962 0.297238 0.261006
1.865000 -0.037385 0.237410 0.238352
1.866000 -0.071141 0.180242 0.215561
1.867000 -0.140160 0.083937 0.213486
1.868000 -0.193244 0.055091 0.225252
1.869000 -0.251932 0.042713 0.251197
1.870000 -0.271962 0.010510 0.255797
1.871000 -0.246818 0.020278 0.245598
1.872000 -0.222546 0.063528 0.241943
1.873000 -0.170928 0.109047 0.245176
1.874000 -0.135000 0.139312 0.255901
1.875000 -0.093293 0.186214 0.243352
1.876000 -0.085531 0.193251 0.246933
1.877000 -0.093382 0.199902 0.268395
1.878000 -0.089126 0.205781 0.266462
1.879000 -0.084843 0.203257 0.251277
1.880000 -0.099464 0.170236 0.250807
1.881000 -0.100041 0.158673 0.231649
1.882000 -0.080368 0.154399 0.197172
1.883000 -0.058863 0.130558 0.155853
1.884000 -0.040059 0.076782 0.090003
1.885000 -0.028370 0.012979 0.003767
1.886000 -0.005808 -0.011681 -0.045413
1.887000 0.028824 -0.039373 -0.084668
1.888000 0.044799 -0.013898 -0.100243
1.889000 0.057231 -0.000630 -0.096110
1.890000 0.070816 0.000480 -0.088356
1.891000 0.095050 0.034077 -0.099777
1.892000 0.147123 0.086697 -0.104062
1.893000 0.186008 0.122575 -0.080843
1.894000 0.150395 0.178943 0.013322
1.895000 0.127254 0.222925 0.062891
1.896000 0.138464 0.254166 0.095166
1.897000 0.128065 0.299046 0.154799
1.898000 0.102571 0.322945 0.178199
1.899000 0.123837 0.333049 0.179537
1.900000 0.095154 0.310209 0.201921
1.901000 0.064979 0.276897 0.177027
1.902000 0.079017 0.250109 0.134548
1.903000 0.077184 0.223285 0.123464
1.904000 0.089700 0.198294 0.069389
1.905000 0.086992 0.162512 0.041799
1.906000 0.104636 0.136501 -0.000208
1.907000 0.134473 0.107892 -0.050141
1.908000 0.145253 0.107236 -0.083818
1.909000 0.153862 0.103812 -0.078368
1.910000 0.154241 0.115980 -0.056447
1.911000 0.160314 0.134797 -0.061972
1.912000 0.178722 0.161805 -0.051916
1.913000 0.207667 0.195951 -0.039378
1.914000 0.198603 0.243293 0.011367
1.915000 0.202398 0.292250 0.046392
1.916000 0.196235 0.316483 0.105219
1.917000 0.156785 0.349844 0.181428
1.918000 0.129372 0.348102 0.202936
1.919000 0.115459 0.372597 0.215564
1.920000 0.125590 0.366856 0.215695
1.921000 0.115100 0.331655 0.195900
1.922000 0.082228 0.296297 0.176224
1.923000 0.062820 0.258009 0.170405
1.924000 0.078377 0.211946 0.114935
1.925000 0.082964 0.183144 0.064852
1.926000 0.120843 0.182270 0.025421
1.927000 0.172287 0.137422 -0.045446
1.928000 0.165860 0.121768 -0.082134
1.929000 0.164763 0.109644 -0.088286
1.930000 0.186777 0.114266 -0.080177
1.931000 0.208810 0.167204 -0.073026
1.932000 0.198287 0.210501 -0.026911
1.933000 0.221646 0.252804 0.007149
1.934000 0.195800 0.259925 0.044168
1.935000 0.156824 0.255301 0.062353
1.936000 0.127238 0.260308 0.106194
1.937000 0.115479 0.303298 0.173949
1.938000 0.110988 0.347839 0.203618
1.939000 0.130274 0.364224 0.197849
1.940000 0.168201 0.376510 0.184479
1.941000 0.136619 0.360336 0.200044
1.942000 0.112941 0.326261 0.174129
1.943000 0.097274 0.274649 0.154625
1.944000 0.114331 0.247857 0.111846
1.945000 0.117692 0.216184 0.059235
1.946000 0.128753 0.169043 0.012820
1.947000 0.136394 0.125608 -0.025027
1.948000 0.167018 0.155633 -0.064243
1.949000 0.195870 0.149998 -0.084363
1.950000 0.220333 0.168421 -0.075818
1.951000 0.211812 0.165275 -0.081008
1.952000 0.189622 0.183389 -0.043205
1.953000 0.216385 0.228933 -0.009033
1.954000 0.217897 0.290201 0.049210
1.955000 0.205486 0.327332 0.082910
1.956000 0.188853 0.338852 0.127479
1.957000 0.174940 0.351459 0.151009
1.958000 0.147315 0.358685 0.177226
1.959000 0.138842 0.360199 0.196830
1.960000 0.131983 0.346785 0.196600
1.961000 0.128743 0.353779 0.184712
1.962000 0.132538 0.313818 0.143402
1.963000 0.120516 0.265204 0.136172
1.964000 0.112537 0.236291 0.095446
1.965000 0.122619 0.210635 0.042319
1.966000 0.145739 0.179785 0.004973
1.967000 0.175484 0.143999 -0.053496
1.968000 0.179362 0.128590 -0.078778
1.969000 0.175720 0.133554 -0.078372
1.970000 0.198544 0.149734 -0.076446
1.971000 0.224742 0.170605 -0.075433
1.972000 0.220900 0.216558 -0.045477
1.973000 0.242279 0.250294 -0.013528
1.974000 0.227670 0.280205 0.032542
1.975000 0.228114 0.339060 0.073773
1.976000 0.224250 0.372309 0.121407
1.977000 0.200626 0.396687 0.186780
1.978000 0.182363 0.409042 0.195927
1.979000 0.175039 0.414356 0.201644
1.980000 0.178187 0.387442 0.196365
1.981000 0.156943 0.379598 0.194906
1.982000 0.141505 0.353574 0.163920
1.983000 0.118579 0.296630 0.155638
1.984000 0.103515 0.248958 0.118025
1.985000 0.116640 0.219273 0.049952
1.986000 0.155181 0.179708 0.000862
1.987000 0.203126 0.167886 -0.058950
1.988000 0.198862 0.170634 -0.064311
1.989000 0.205994 0.168654 -0.071549
1.990000 0.208127 0.165199 -0.057583
1.991000 0.220130 0.172335 -0.079196
1.992000 0.225518 0.209125 -0.052644
1.993000 0.248521 0.244163 -0.018264
1.994000 0.226818 0.290544 0.034688
1.995000 0.217236 0.339728 0.087589
1.996000 0.218919 0.371250 0.128698
1.997000 0.211559 0.403528 0.174760
1.998000 0.188697 0.419613 0.192541
1.999000 0.186060 0.421722 0.202996
2.000000 0.185856 0.414121 0.211752
2.001000 0.153522 0.398216 0.208175
2.002000 0.154273 0.360077 0.171110
2.003000 0.163246 0.334655 0.150836
2.004000 0.167386 0.306310 0.111289
2.005000 0.142395 0.249414 0.064504
2.006000 0.160491 0.215670 0.031265
2.007000 0.189786 0.196383 -0.016288
2.008000 0.179550 0.183670 -0.033507
2.009000 0.180449 0.179076 -0.024869
2.010000 0.176699 0.191074 0.001051
2.011000 0.227991 0.224630 -0.042771
2.012000 0.248924 0.278015 -0.003318
2.013000 0.262936 0.287625 0.011470
2.014000 0.252768 0.314543 0.040324
2.015000 0.234288 0.349512 0.088569
2.016000 0.223686 0.389945 0.146068
2.017000 0.217362 0.414680 0.186161
2.018000 0.204513 0.420312 0.189636
2.019000 0.181590 0.422867 0.200624
2.020000 0.188016 0.435745 0.230286
2.021000 0.194099 0.449103 0.226542
2.022000 0.189450 0.414476 0.183962
2.023000 0.183400 0.363694 0.156243
2.024000 0.203914 0.348291 0.130486
2.025000 0.180169 0.323976 0.100921
2.026000 0.211219 0.286680 0.040781
2.027000 0.222828 0.241474 -0.004782
2.028000 0.221241 0.211183 -0.045996
2.029000 0.239415 0.224720 -0.047522
2.030000 0.238713 0.216442 -0.042803
2.031000 0.236090 0.221198 -0.042056
2.032000 0.220251 0.261363 0.003849
2.033000 0.260013 0.302853 0.024279
2.034000 0.269652 0.355198 0.066313
2.035000 0.258307 0.385005 0.088440
2.036000 0.228091 0.398041 0.151647
2.037000 0.227843 0.449429 0.203164
2.038000 0.260751 0.487663 0.200543
2.039000 0.238483 0.503088 0.236565
2.040000 0.240693 0.483199 0.226315
2.041000 0.194108 0.455033 0.227606
2.042000 0.201952 0.452057 0.214229
2.043000 0.204517 0.422232 0.199118
2.044000 0.196758 0.366043 0.135248
2.045000 0.208066 0.343121 0.091932
2.046000 0.232169 0.317004 0.053922
2.047000 0.248303 0.273514 0.003784
2.048000 0.236811 0.250300 -0.030521
2.049000 0.239586 0.226394 -0.041816
2.050000 0.243207 0.236950 -0.022109
2.051000 0.265015 0.296144 -0.012746
2.052000 0.295712 0.338765 0.005915
2.053000 0.313548 0.357781 0.022194
2.054000 0.300624 0.410012 0.074754
2.055000 0.297003 0.476599 0.147753
2.056000 0.285744 0.488191 0.185684
2.057000 0.280613 0.511915 0.211165
2.058000 0.280685 0.536153 0.223978
2.059000 0.238564 0.514271 0.241207
2.060000 0.243085 0.506037 0.243459
2.061000 0.213287 0.498921 0.247533
2.062000 0.218646 0.472837 0.216145
2.063000 0.217396 0.418374 0.184852
2.064000 0.215768 0.405785 0.160345
2.065000 0.219371 0.365237 0.099182
2.066000 0.223797 0.307889 0.064546
2.067000 0.243258 0.271122 0.015965
2.068000 0.237268 0.258751 -0.010478
2.069000 0.281178 0.278812 -0.047527
2.070000 0.289169 0.280375 -0.035813
2.071000 0.294815 0.287268 -0.035242
2.072000 0.282731 0.309969 -0.012199
2.073000 0.296910 0.341990 0.019000
2.074000 0.310940 0.395320 0.067846
2.075000 0.296982 0.447852 0.114995
2.076000 0.280404 0.479752 0.176266
2.077000 0.256391 0.498691 0.223487
2.078000 0.241109 0.517514 0.238087
2.079000 0.221730 0.509369 0.249631
2.080000 0.225082 0.494793 0.252317
2.081000 0.210464 0.493402 0.245650
2.082000 0.205102 0.457566 0.212612
2.083000 0.187915 0.411435 0.204407
2.084000 0.188985 0.372591 0.160234
2.085000 0.194472 0.336980 0.098356
2.086000 0.223318 0.301650 0.060515
2.087000 0.225872 0.275092 0.032233
2.088000 0.223807 0.244428 -0.016338
2.089000 0.262349 0.251130 -0.044645
2.090000 0.241318 0.232088 -0.031626
2.091000 0.247960 0.248538 -0.038879
2.092000 0.268141 0.285558 -0.017382
2.093000 0.290529 0.322457 0.018588
2.094000 0.290237 0.370650 0.056902
2.095000 0.280127 0.414113 0.100260
2.096000 0.241933 0.427756 0.165943
2.097000 0.203143 0.435331 0.216342
2.098000 0.182061 0.456313 0.244913
2.099000 0.171136 0.453842 0.253071
2.100000 0.184822 0.444151 0.230190
2.101000 0.179903 0.440289 0.224145
2.102000 0.176995 0.409304 0.211033
2.103000 0.168762 0.363864 0.170024
2.104000 0.186423 0.335898 0.113705
2.105000 0.160209 0.284689 0.095100
2.106000 0.129646 0.244765 0.091604
2.107000 0.163807 0.218723 0.016191
2.108000 0.163049 0.202141 -0.006370
2.109000 0.202188 0.202327 -0.020336
2.110000 0.227111 0.226127 -0.032674
2.111000 0.239154 0.233120 -0.044827
2.112000 0.238510 0.244411 -0.017677
2.113000 0.256557 0.286322 0.008102
2.114000 0.227710 0.320323 0.052643
2.115000 0.228235 0.369614 0.104347
2.116000 0.215887 0.380568 0.143694
2.117000 0.148049 0.367537 0.195476
2.118000 0.148127 0.377667 0.198143
2.119000 0.143329 0.383711 0.216786
2.120000 0.131558 0.375260 0.220124
2.121000 0.104153 0.369309 0.228766
2.122000 0.108828 0.342762 0.206282
2.123000 0.155670 0.316331 0.138002
2.124000 0.130568 0.277147 0.105895
2.125000 0.114088 0.225951 0.081869
2.126000 0.136303 0.205856 0.055016
2.127000 0.171925 0.221096 0.018818
2.128000 0.150479 0.176259 -0.017081
2.129000 0.153467 0.147174 -0.028778
2.130000 0.157805 0.159621 -0.034386
2.131000 0.173944 0.174706 -0.042750
2.132000 0.187174 0.190512 -0.010193
2.133000 0.180412 0.235512 0.034888
2.134000 0.176051 0.274882 0.058660
2.135000 0.197297 0.307085 0.089066
2.136000 0.197260 0.339047 0.125346
2.137000 0.149086 0.358388 0.166587
2.138000 0.165870 0.384053 0.191938
2.139000 0.163432 0.388877 0.206281
2.140000 0.128086 0.384038 0.223315
2.141000 0.141786 0.373628 0.203404
2.142000 0.149727 0.337534 0.167525
2.143000 0.122957 0.295825 0.137285
2.144000 0.105720 0.247865 0.106738
2.145000 0.101429 0.174661 0.056159
2.146000 0.075832 0.138521 0.033829
2.147000 0.085808 0.145838 0.012573
2.148000 0.109128 0.119427 -0.014917
2.149000 0.123740 0.088512 -0.056660
2.150000 0.120312 0.088574 -0.072222
2.151000 0.136587 0.097549 -0.062372
2.152000 0.169639 0.149687 -0.040081
2.153000 0.192859 0.224159 -0.000054
2.154000 0.198329 0.256384 0.028838
2.155000 0.182592 0.273406 0.076126
2.156000 0.165233 0.312250 0.123187
2.157000 0.134425 0.335478 0.165778
2.158000 0.146130 0.365366 0.198499
2.159000 0.128697 0.373410 0.220998
2.160000 0.123451 0.373014 0.216081
2.161000 0.120904 0.360092 0.214549
2.162000 0.105164 0.329323 0.202472
2.163000 0.078905 0.295294 0.180451
2.164000 0.076764 0.265213 0.141022
2.165000 0.094054 0.222185 0.111872
2.166000 0.089677 0.197465 0.083590
2.167000 0.072120 0.172838 0.053360
2.168000 0.090110 0.115273 -0.004733
2.169000 0.122923 0.094563 -0.043276
2.170000 0.120240 0.113728 -0.050067
2.171000 0.118756 0.124644 -0.028080
2.172000 0.141914 0.145320 -0.013591
2.173000 0.161212 0.194260 -0.000120
2.174000 0.183346 0.242233 0.026637
2.175000 0.185243 0.288953 0.086159
2.176000 0.190059 0.331027 0.115336
2.177000 0.181668 0.362909 0.145584
2.178000 0.180497 0.395141 0.193262
2.179000 0.186559 0.406400 0.202543
2.180000 0.157996 0.392567 0.198509
2.181000 0.141269 0.385709 0.225741
2.182000 0.137335 0.371078 0.214585
2.183000 0.118887 0.320361 0.162221
2.184000 0.082353 0.237180 0.117192
2.185000 0.082912 0.166579 0.073911
2.186000 0.096493 0.161087 0.034717
2.187000 0.119063 0.154617 -0.002393
2.188000 0.133582 0.125934 -0.030895
2.189000 0.131822 0.127614 -0.041793
2.190000 0.141221 0.130753 -0.044187
2.191000 0.149555 0.129263 -0.041454
2.192000 0.162960 0.162505 -0.027070
2.193000 0.177134 0.215261 -0.000396
2.194000 0.189711 0.239723 0.026920
2.195000 0.197438 0.287065 0.078271
2.196000 0.185453 0.338678 0.116701
2.197000 0.142454 0.355127 0.194006
2.198000 0.157111 0.375769 0.201774
2.199000 0.116862 0.365361 0.215010
2.200000 0.093223 0.364089 0.236203
2.201000 0.129864 0.370621 0.226376
2.202000 0.130482 0.369623 0.212781
2.203000 0.099220 0.317512 0.186382
2.204000 0.090492 0.274635 0.164795
2.205000 0.106640 0.242541 0.102842
2.206000 0.106882 0.204125 0.051232
2.207000 0.128235 0.154918 -0.005176
2.208000 0.132559 0.114300 -0.049970
2.209000 0.187183 0.143546 -0.085479
2.210000 0.205941 0.159132 -0.077054
2.211000 0.203355 0.141972 -0.073795
2.212000 0.188197 0.159185 -0.053867
2.213000 0.153051 0.185093 -0.006386
2.214000 0.173589 0.203528 0.017243
2.215000 0.176851 0.263223 0.063471
2.216000 0.172619 0.317475 0.108004
2.217000 0.174662 0.352224 0.148775
2.218000 0.156086 0.366319 0.195200
2.219000 0.102531 0.348848 0.216370
2.220000 0.096011 0.341735 0.217045
2.221000 0.111048 0.336000 0.206936
2.222000 0.114395 0.322415 0.178588
2.223000 0.116853 0.271010 0.122275
2.224000 0.085128 0.241715 0.140074
2.225000 0.072658 0.190322 0.092863
2.226000 0.083251 0.166110 0.038984
2.227000 0.095459 0.137529 0.014743
2.228000 0.113018 0.116141 -0.016038
2.229000 0.151045 0.130712 -0.057645
2.230000 0.182946 0.140129 -0.081217
2.231000 0.235920 0.172382 -0.081006
2.232000 0.229060 0.192510 -0.067244
2.233000 0.181700 0.192617 -0.024412
2.234000 0.179318 0.206528 0.009904
2.235000 0.180987 0.246274 0.042355
2.236000 0.148598 0.264729 0.079577
2.237000 0.117965 0.304681 0.165831
2.238000 0.133967 0.356314 0.194324
2.239000 0.115184 0.374577 0.219342
2.240000 0.093206 0.349052 0.227871
2.241000 0.086555 0.331508 0.224024
2.242000 0.079139 0.313740 0.200948
2.243000 0.114183 0.279847 0.127846
2.244000 0.117502 0.233359 0.102241
2.245000 0.117594 0.218187 0.070811
2.246000 0.103328 0.201074 0.051781
2.247000 0.103825 0.164132 0.039711
2.248000 0.105945 0.121498 -0.009258
2.249000 0.122575 0.093543 -0.067614
2.250000 0.144680 0.101359 -0.084839
2.251000 0.160963 0.112200 -0.063437
2.252000 0.182141 0.156832 -0.060978
2.253000 0.159677 0.186853 -0.009895
2.254000 0.203593 0.214102 -0.002489
2.255000 0.191783 0.259631 0.038969
2.256000 0.178220 0.313631 0.099508
2.257000 0.147155 0.326085 0.163315
2.258000 0.134782 0.359672 0.200038
2.259000 0.137345 0.371843 0.200762
2.260000 0.147114 0.381155 0.207694
2.261000 0.137757 0.374979 0.229432
2.262000 0.099739 0.345630 0.212288
2.263000 0.096141 0.295963 0.162964
2.264000 0.087437 0.254037 0.146139
2.265000 0.092524 0.217290 0.095420
2.266000 0.074247 0.176422 0.062286
2.267000 0.105037 0.161209 0.024764
2.268000 0.116986 0.110249 -0.030084
2.269000 0.122912 0.108567 -0.054826
2.270000 0.141522 0.107520 -0.062856
2.271000 0.171545 0.129828 -0.066914
2.272000 0.188836 0.154474 -0.064911
2.273000 0.183512 0.191378 -0.035382
2.274000 0.203360 0.224308 0.003161
2.275000 0.186412 0.273198 0.062281
2.276000 0.168724 0.314515 0.108493
2.277000 0.150540 0.333425 0.162740
2.278000 0.150333 0.357001 0.182753
2.279000 0.140544 0.373687 0.199435
2.280000 0.133499 0.372359 0.209207
2.281000 0.135396 0.362441 0.210358
2.282000 0.109911 0.338458 0.200496
2.283000 0.116519 0.323941 0.162519
2.284000 0.094819 0.286633 0.144002
2.285000 0.131528 0.252673 0.088549
2.286000 0.137365 0.208750 0.045753
2.287000 0.146220 0.184557 0.003772
2.288000 0.164954 0.153174 -0.056385
2.289000 0.148076 0.128807 -0.048372
2.290000 0.149937 0.128528 -0.043970
2.291000 0.173514 0.127080 -0.067731
2.292000 0.166624 0.159919 -0.046110
2.293000 0.197868 0.205695 -0.029613
2.294000 0.199318 0.225811 0.005459
2.295000 0.175025 0.251368 0.059631
2.296000 0.169773 0.302974 0.091937
2.297000 0.162877 0.325612 0.132865
2.298000 0.141670 0.345476 0.189626
2.299000 0.117096 0.365599 0.226964
2.300000 0.149299 0.402397 0.218402
2.301000 0.146277 0.386816 0.203219
2.302000 0.126575 0.352460 0.202756
2.303000 0.108430 0.287121 0.165664
2.304000 0.068433 0.248999 0.156299
2.305000 0.076847 0.229392 0.108957
2.306000 0.108515 0.204926 0.064192
2.307000 0.149120 0.173390 0.009000
2.308000 0.140044 0.111090 -0.050537
2.309000 0.147695 0.109316 -0.078765
2.310000 0.164777 0.119747 -0.081374
2.311000 0.176673 0.120230 -0.070788
2.312000 0.203774 0.142986 -0.081338
2.313000 0.208127 0.190030 -0.054912
2.314000 0.195432 0.224850 0.000172
2.315000 0.145145 0.262239 0.103067
2.316000 0.132371 0.308785 0.157789
2.317000 0.129555 0.316165 0.158283
2.318000 0.082222 0.337130 0.224258
2.319000 0.090779 0.353212 0.236435
2.320000 0.110290 0.350446 0.225694
2.321000 0.112717 0.348650 0.209062
2.322000 0.104700 0.338192 0.187727
2.323000 0.119140 0.296325 0.145854
2.324000 0.102218 0.252291 0.137872
2.325000 0.097342 0.217799 0.086051
2.326000 0.114085 0.194343 0.042419
2.327000 0.120949 0.176823 0.025497
2.328000 0.137334 0.128107 -0.034845
2.329000 0.155604 0.117668 -0.065394
2.330000 0.170812 0.119674 -0.086700
2.331000 0.190415 0.121127 -0.093799
2.332000 0.169924 0.132711 -0.056511
2.333000 0.172618 0.163572 -0.023689
2.334000 0.180045 0.201877 -0.015476
2.335000 0.191630 0.262733 0.033509
2.336000 0.200083 0.297935 0.077104
2.337000 0.189641 0.322398 0.120466
2.338000 0.153475 0.347576 0.162734
2.339000 0.119533 0.343846 0.187339
2.340000 0.125964 0.336411 0.187617
2.341000 0.121161 0.336847 0.201136
2.342000 0.091631 0.335688 0.212473
2.343000 0.099436 0.330915 0.180205
2.344000 0.106468 0.281640 0.152823
2.345000 0.118000 0.224207 0.083637
2.346000 0.118160 0.188609 0.040941
2.347000 0.173456 0.219172 -0.006531
2.348000 0.184871 0.163753 -0.048812
2.349000 0.178277 0.130725 -0.073417
2.350000 0.192380 0.115466 -0.109423
2.351000 0.215895 0.130608 -0.127303
2.352000 0.225849 0.140120 -0.098129
2.353000 0.187990 0.174259 -0.044901
2.354000 0.156432 0.207609 0.025139
2.355000 0.138964 0.239685 0.081268
2.356000 0.154737 0.296085 0.107957
2.357000 0.130285 0.328642 0.161884
2.358000 0.123839 0.339229 0.191186
2.359000 0.091276 0.324398 0.215362
2.360000 0.099701 0.327234 0.186132
2.361000 0.135397 0.341066 0.185329
2.362000 0.100851 0.320927 0.198933
2.363000 0.083539 0.290830 0.169156
2.364000 0.064710 0.237177 0.149001
2.365000 0.072795 0.194132 0.104024
2.366000 0.064725 0.168658 0.071336
2.367000 0.086673 0.178951 0.043586
2.368000 0.114032 0.115532 -0.023179
2.369000 0.137896 0.099353 -0.065093
2.370000 0.163261 0.120067 -0.084108
2.371000 0.164726 0.131021 -0.064853
2.372000 0.234250 0.183430 -0.073102
2.373000 0.219751 0.194296 -0.062666
2.374000 0.202196 0.206357 -0.029432
2.375000 0.170157 0.228793 0.044357
2.376000 0.154504 0.285079 0.101502
2.377000 0.136982 0.311081 0.148546
2.378000 0.118414 0.334190 0.198417
2.379000 0.104890 0.358789 0.230693
2.380000 0.103196 0.365122 0.223539
2.381000 0.116256 0.352643 0.215241
2.382000 0.098583 0.331658 0.215472
2.383000 0.088036 0.312857 0.181178
2.384000 0.088071 0.274103 0.154902
2.385000 0.098191 0.234340 0.110642
2.386000 0.102936 0.189787 0.056941
2.387000 0.106639 0.159159 0.007012
2.388000 0.141520 0.131508 -0.032598
2.389000 0.150042 0.122956 -0.060002
2.390000 0.169189 0.128342 -0.081923
2.391000 0.193289 0.132114 -0.082139
2.392000 0.204909 0.157187 -0.074840
2.393000 0.175888 0.182897 -0.021371
2.394000 0.188753 0.225874 0.005376
2.395000 0.204971 0.258091 0.035681
2.396000 0.208119 0.296391 0.058087
2.397000 0.173347 0.319792 0.112485
2.398000 0.145788 0.335048 0.175478
2.399000 0.138787 0.351853 0.184499
2.400000 0.133247 0.368573 0.201530
2.401000 0.110943 0.336782 0.212824
2.402000 0.081382 0.336756 0.213161
2.403000 0.113093 0.311487 0.168273
2.404000 0.104904 0.272585 0.142113
2.405000 0.092484 0.238353 0.106678
2.406000 0.105826 0.188247 0.068621
2.407000 0.086096 0.165402 0.055603
2.408000 0.129853 0.147468 -0.028934
2.409000 0.152745 0.113647 -0.064498
2.410000 0.173794 0.099534 -0.096778
2.411000 0.188183 0.121690 -0.102769
2.412000 0.199611 0.140863 -0.082741
2.413000 0.199094 0.172024 -0.042346
2.414000 0.208710 0.234138 -0.017853
2.415000 0.210542 0.284681 0.036985
2.416000 0.176760 0.307663 0.098015
2.417000 0.181963 0.332652 0.138990
2.418000 0.173857 0.377937 0.173831
2.419000 0.168366 0.405090 0.207262
2.420000 0.124708 0.393294 0.245829
2.421000 0.114219 0.385243 0.250192
2.422000 0.101409 0.388731 0.250873
2.423000 0.106490 0.359166 0.227334
2.424000 0.087729 0.317402 0.206334
2.425000 0.082611 0.279099 0.161789
2.426000 0.095228 0.238868 0.111108
2.427000 0.126423 0.210013 0.066337
2.428000 0.140204 0.178378 0.007238
2.429000 0.143772 0.157095 -0.019791
2.430000 0.158404 0.143159 -0.033567
2.431000 0.170576 0.165396 -0.037414
2.432000 0.186404 0.198893 -0.027791
2.433000 0.197500 0.219192 -0.002856
2.434000 0.195694 0.228797 0.014835
2.435000 0.187936 0.268138 0.045970
2.436000 0.202778 0.329124 0.090771
2.437000 0.230909 0.365558 0.119038
2.438000 0.192801 0.398747 0.172354
2.439000 0.199566 0.425198 0.194524
2.440000 0.179436 0.415705 0.215193
2.441000 0.165680 0.398081 0.202765
2.442000 0.125871 0.377025 0.212532
2.443000 0.147408 0.355540 0.179081
2.444000 0.128071 0.329630 0.183304
2.445000 0.128225 0.307562 0.140065
2.446000 0.143364 0.277209 0.107891
2.447000 0.134084 0.232123 0.069662
2.448000 0.160781 0.185774 -0.013495
2.449000 0.129541 0.153517 0.001447
2.450000 0.139676 0.149145 -0.017029
2.451000 0.169568 0.163244 -0.043986
2.452000 0.208408 0.203812 -0.051115
2.453000 0.216559 0.235226 -0.000513
2.454000 0.181244 0.239888 0.027938
2.455000 0.167472 0.248305 0.042901
2.456000 0.193262 0.300363 0.085586
2.457000 0.173984 0.332631 0.133188
2.458000 0.157679 0.374412 0.183645
2.459000 0.153345 0.386032 0.211350
2.460000 0.142533 0.386079 0.220733
2.461000 0.141616 0.388561 0.205909
2.462000 0.108417 0.360288 0.229996
2.463000 0.099756 0.322839 0.198253
2.464000 0.087490 0.283184 0.164598
2.465000 0.098401 0.266794 0.125005
2.466000 0.101674 0.224017 0.092311
2.467000 0.132608 0.195468 0.034629
2.468000 0.143836 0.148430 -0.021310
2.469000 0.137407 0.125493 -0.055385
2.470000 0.162548 0.118835 -0.073919
2.471000 0.166872 0.129081 -0.063381
2.472000 0.147810 0.147525 -0.042514
2.473000 0.180300 0.195121 -0.008210
2.474000 0.194382 0.220440 0.002577
2.475000 0.191802 0.243427 0.014978
2.476000 0.204742 0.277287 0.039274
2.477000 0.184243 0.300960 0.100712
2.478000 0.167328 0.364514 0.156350
2.479000 0.128273 0.374187 0.214683
2.480000 0.117850 0.363553 0.224953
2.481000 0.115167 0.358001 0.206795
2.482000 0.111071 0.346457 0.194279
2.483000 0.097532 0.308700 0.187582
2.484000 0.065067 0.258226 0.171665
2.485000 0.066157 0.230430 0.118667
2.486000 0.068821 0.190742 0.094129
2.487000 0.080677 0.169896 0.064079
2.488000 0.125009 0.158395 0.000317
2.489000 0.140048 0.129635 -0.051086
2.490000 0.157679 0.120168 -0.054882
2.491000 0.140098 0.129982 -0.039317
2.492000 0.159567 0.169502 -0.033283
2.493000 0.184857 0.199175 -0.007214
2.494000 0.186389 0.217772 0.007471
2.495000 0.189749 0.243535 0.019938
2.496000 0.193947 0.283962 0.071244
2.497000 0.192685 0.307092 0.095897
2.498000 0.151065 0.316103 0.129917
2.499000 0.153298 0.347420 0.163634
2.500000 0.138690 0.376945 0.225055
2.501000 0.106421 0.349811 0.208959
2.502000 0.067911 0.316597 0.206752
2.503000 0.072215 0.290082 0.195772
2.504000 0.082600 0.266396 0.157174
2.505000 0.084161 0.236232 0.111380
2.506000 0.085181 0.186926 0.078549
2.507000 0.075382 0.163321 0.061757
2.508000 0.100803 0.149475 0.010033
2.509000 0.126842 0.121254 -0.040923
2.510000 0.147481 0.114971 -0.046688
2.511000 0.138030 0.132769 -0.048435
2.512000 0.176146 0.153570 -0.056154
2.513000 0.190235 0.180482 -0.030972
2.514000 0.187157 0.200676 -0.008539
2.515000 0.185301 0.242023 0.023478
2.516000 0.166282 0.294759 0.086879
2.517000 0.179364 0.320331 0.118481
2.518000 0.173190 0.340644 0.150453
2.519000 0.166859 0.378387 0.172300
2.520000 0.103650 0.340106 0.211807
2.521000 0.076436 0.340163 0.235898
2.522000 0.100931 0.360419 0.215948
2.523000 0.102970 0.340597 0.208717
2.524000 0.125797 0.314345 0.171736
2.525000 0.109706 0.268447 0.124818
2.526000 0.080710 0.203410 0.075288
2.527000 0.111656 0.186571 0.052554
2.528000 0.137865 0.170597 -0.001962
2.529000 0.154977 0.152757 -0.060020
2.530000 0.191527 0.129937 -0.080172
2.531000 0.191872 0.143694 -0.069261
2.532000 0.185081 0.162054 -0.067343
2.533000 0.172259 0.169491 -0.030862
2.534000 0.182296 0.180889 -0.020336
2.535000 0.175308 0.229849 0.023858
2.536000 0.141815 0.260459 0.080574
2.537000 0.149714 0.288609 0.124146
2.538000 0.140785 0.320967 0.155193
2.539000 0.153348 0.368090 0.181473
2.540000 0.127290 0.369375 0.214862
2.541000 0.115135 0.365774 0.235952
2.542000 0.086959 0.341839 0.214141
2.543000 0.082620 0.308630 0.188858
2.544000 0.079450 0.262783 0.164916
2.545000 0.081810 0.231855 0.107637
2.546000 0.044357 0.158936 0.083904
2.547000 0.081078 0.139161 0.025586
2.548000 0.140359 0.150050 -0.029907
2.549000 0.144482 0.108251 -0.063046
2.550000 0.135183 0.065663 -0.087871
2.551000 0.151848 0.070990 -0.125199
2.552000 0.184540 0.092645 -0.129846
2.553000 0.194812 0.107244 -0.098285
2.554000 0.177623 0.162303 -0.046744
2.555000 0.173375 0.229823 0.018540
2.556000 0.200447 0.301406 0.073622
2.557000 0.217199 0.345559 0.094581
2.558000 0.201619 0.382041 0.141928
2.559000 0.207467 0.434239 0.204008
2.560000 0.248875 0.474539 0.202583
2.561000 0.262672 0.510740 0.208776
2.562000 0.259129 0.522050 0.232645
2.563000 0.266065 0.517453 0.227414
2.564000 0.249585 0.499113 0.225154
2.565000 0.245182 0.504541 0.214764
2.566000 0.305859 0.510412 0.155101
2.567000 0.361829 0.509888 0.127534
2.568000 0.412230 0.530925 0.089333
2.569000 0.402202 0.515110 0.077450
2.570000 0.426787 0.515044 0.072623
2.571000 0.414937 0.555666 0.109509
2.572000 0.432596 0.603829 0.126408
2.573000 0.430715 0.590495 0.133706
2.574000 0.389332 0.602651 0.180200
2.575000 0.335857 0.605389 0.233470
2.576000 0.270110 0.585150 0.281410
2.577000 0.230872 0.554600 0.307013
2.578000 0.204828 0.548642 0.317984
2.579000 0.159811 0.552672 0.356048
2.580000 0.076406 0.514207 0.428818
2.581000 0.012891 0.486111 0.453056
2.582000 -0.068029 0.431293 0.458676
2.583000 -0.170510 0.356429 0.518062
2.584000 -0.239634 0.298896 0.518676
2.585000 -0.296224 0.251231 0.507346
2.586000 -0.300509 0.189898 0.462104
2.587000 -0.258406 0.154214 0.391666
2.588000 -0.233317 0.128375 0.329109
2.589000 -0.217741 0.096547 0.271893
2.590000 -0.140854 0.077148 0.204570
2.591000 -0.107821 0.078514 0.153374
2.592000 -0.104700 0.070787 0.134006
2.593000 -0.084544 0.063701 0.130488
2.594000 -0.046479 0.106238 0.127875
2.595000 0.009714 0.157697 0.103562
2.596000 0.019340 0.210593 0.160255
2.597000 0.001639 0.223812 0.208223
2.598000 -0.010586 0.253109 0.224333
2.599000 0.007111 0.301185 0.258308
2.600000 0.002062 0.290644 0.273358
2.601000 -0.020526 0.273274 0.262858
2.602000 -0.001007 0.278584 0.243871
2.603000 -0.001897 0.249184 0.229394
2.604000 0.008992 0.220525 0.184661
2.605000 0.014167 0.195532 0.137023
2.606000 0.055749 0.171345 0.082000
2.607000 0.051672 0.125447 0.055169
2.608000 0.062648 0.122687 0.015875
2.609000 0.093659 0.104161 -0.015431
2.610000 0.120126 0.093710 -0.045096
2.611000 0.137251 0.110562 -0.065326
2.612000 0.143716 0.113633 -0.074598
2.613000 0.187415 0.149659 -0.063794
2.614000 0.203481 0.226458 -0.005297
2.615000 0.171604 0.252338 0.037982
2.616000 0.150065 0.267694 0.087639
2.617000 0.162214 0.301141 0.117855
2.618000 0.164048 0.347207 0.156119
2.619000 0.148619 0.383972 0.206999
2.620000 0.143977 0.387376 0.225628
2.621000 0.129141 0.394115 0.231868
2.622000 0.096848 0.389231 0.248425
2.623000 0.097937 0.347270 0.227249
2.624000 0.103257 0.307062 0.178098
2.625000 0.083993 0.278367 0.150975
2.626000 0.097105 0.237527 0.105502
2.627000 0.122729 0.219014 0.067063
2.628000 0.137483 0.193274 0.018286
2.629000 0.148954 0.160261 -0.022788
2.630000 0.170873 0.147808 -0.042023
2.631000 0.161821 0.151754 -0.056899
2.632000 0.171336 0.163316 -0.042808
2.633000 0.193742 0.186524 -0.028104
2.634000 0.200929 0.220024 -0.009392
2.635000 0.238769 0.268522 -0.011770
2.636000 0.233483 0.309746 0.048065
2.637000 0.222346 0.339995 0.098570
2.638000 0.159908 0.367597 0.175496
2.639000 0.123702 0.394242 0.239547
2.640000 0.103811 0.384420 0.261701
2.641000 0.122658 0.394837 0.229650
2.642000 0.176687 0.435228 0.221995
2.643000 0.163226 0.400846 0.215440
2.644000 0.166008 0.363512 0.177389
2.645000 0.136900 0.309021 0.129540
2.646000 0.150639 0.265452 0.093245
2.647000 0.151550 0.234844 0.059854
2.648000 0.165360 0.225336 0.015724
2.649000 0.185799 0.184531 -0.027537
2.650000 0.181368 0.162491 -0.046445
2.651000 0.174620 0.165055 -0.049859
2.652000 0.181333 0.157290 -0.048427
2.653000 0.210545 0.199704 -0.033866
2.654000 0.240390 0.251364 -0.028958
2.655000 0.271590 0.303264 -0.012016
2.656000 0.250273 0.322342 0.050370
2.657000 0.243087 0.368505 0.097052
2.658000 0.226959 0.410567 0.145793
2.659000 0.190742 0.412666 0.199378
2.660000 0.180642 0.401269 0.201374
2.661000 0.132253 0.405860 0.233712
2.662000 0.122214 0.383846 0.230050
2.663000 0.119202 0.361092 0.221305
2.664000 0.135647 0.327415 0.165341
2.665000 0.135230 0.292948 0.116151
2.666000 0.141035 0.247530 0.082292
2.667000 0.138241 0.205074 0.047126
2.668000 0.138212 0.188336 0.006739
2.669000 0.175221 0.167284 -0.034762
2.670000 0.194575 0.164690 -0.053752
2.671000 0.176881 0.179819 -0.041075
2.672000 0.190979 0.180620 -0.048019
2.673000 0.218260 0.208866 -0.031293
2.674000 0.230379 0.255354 -0.005798
2.675000 0.235056 0.295048 0.021169
2.676000 0.232425 0.329210 0.083317
2.677000 0.207646 0.351673 0.124198
2.678000 0.187248 0.378570 0.149026
2.679000 0.218504 0.429460 0.185690
2.680000 0.222540 0.441761 0.199446
2.681000 0.178885 0.444528 0.225555
2.682000 0.132248 0.410228 0.248025
2.683000 0.122473 0.370414 0.232371
2.684000 0.104038 0.339526 0.200898
2.685000 0.091928 0.311647 0.174362
2.686000 0.120707 0.270134 0.126763
2.687000 0.148465 0.249695 0.079153
2.688000 0.153654 0.222853 0.026205
2.689000 0.179938 0.179773 -0.027430
2.690000 0.203417 0.179143 -0.052061
2.691000 0.196773 0.183301 -0.051683
2.692000 0.198370 0.181316 -0.049071
2.693000 0.226310 0.206926 -0.036548
2.694000 0.234063 0.250008 -0.018118
2.695000 0.222605 0.264895 0.007016
2.696000 0.208559 0.292106 0.066970
2.697000 0.194759 0.346201 0.134795
2.698000 0.180683 0.397030 0.180672
2.699000 0.197121 0.427289 0.205863
2.700000 0.194030 0.435838 0.225426
2.701000 0.186177 0.449439 0.219063
2.702000 0.177019 0.439165 0.233452
2.703000 0.194162 0.412900 0.192893
2.704000 0.214762 0.412759 0.156135
2.705000 0.217472 0.383763 0.131416
2.706000 0.203701 0.305945 0.080912
2.707000 0.157544 0.231560 0.038639
2.708000 0.170935 0.211627 -0.007423
2.709000 0.200479 0.196491 -0.026264
2.710000 0.209775 0.189581 -0.049484
2.711000 0.203268 0.182744 -0.061568
2.712000 0.238023 0.195023 -0.068218
2.713000 0.247637 0.213111 -0.050656
2.714000 0.229172 0.239681 -0.023628
2.715000 0.246323 0.280595 -0.002828
2.716000 0.264913 0.326012 0.039253
2.717000 0.265232 0.381266 0.082391
2.718000 0.237836 0.413563 0.135481
2.719000 0.178216 0.449244 0.250229
2.720000 0.195248 0.460874 0.245972
2.721000 0.189203 0.465847 0.230832
2.722000 0.186598 0.448775 0.229421
2.723000 0.191457 0.438955 0.221467
2.724000 0.179349 0.406959 0.191313
2.725000 0.155534 0.353217 0.154660
2.726000 0.168043 0.311745 0.115494
2.727000 0.171448 0.284080 0.082875
2.728000 0.206710 0.273660 0.022591
2.729000 0.243586 0.236979 -0.029960
2.730000 0.236494 0.212234 -0.055108
2.731000 0.242803 0.222174 -0.063357
2.732000 0.262116 0.227201 -0.063256
2.733000 0.281605 0.254744 -0.044861
2.734000 0.283820 0.295107 -0.026133
2.735000 0.290906 0.319792 -0.004460
2.736000 0.284538 0.352972 0.056824
2.737000 0.267430 0.405279 0.107807
2.738000 0.238082 0.433657 0.163766
2.739000 0.227359 0.458766 0.212555
2.740000 0.231810 0.473042 0.217459
2.741000 0.232956 0.494531 0.216958
2.742000 0.216962 0.488307 0.242451
2.743000 0.245642 0.471638 0.205950
2.744000 0.242922 0.444659 0.159779
2.745000 0.194263 0.397601 0.165688
2.746000 0.164819 0.329172 0.144345
2.747000 0.171515 0.304624 0.099079
2.748000 0.204738 0.297756 0.040460
2.749000 0.229239 0.257832 0.004116
2.750000 0.242717 0.256079 -0.021950
2.751000 0.252408 0.265491 -0.028731
2.752000 0.292725 0.275509 -0.050847
2.753000 0.322780 0.303940 -0.040694
2.754000 0.321620 0.336630 -0.021027
2.755000 0.297402 0.366722 0.044084
2.756000 0.290564 0.416225 0.108895
2.757000 0.302729 0.468520 0.129033
2.758000 0.295911 0.480010 0.146728
2.759000 0.262621 0.483202 0.206176
2.760000 0.238708 0.488599 0.228762
2.761000 0.226112 0.505541 0.239099
2.762000 0.260623 0.519905 0.243246
2.763000 0.227647 0.493758 0.252265
2.764000 0.207254 0.442261 0.193192
2.765000 0.177535 0.386805 0.177145
2.766000 0.186650 0.356485 0.137387
2.767000 0.210716 0.335041 0.093979
2.768000 0.229563 0.326970 0.053538
2.769000 0.236326 0.276974 0.020566
2.770000 0.255050 0.264939 -0.019205
2.771000 0.271219 0.282620 -0.032174
2.772000 0.286383 0.301239 -0.018234
2.773000 0.318677 0.331428 -0.003570
2.774000 0.320203 0.363804 0.003991
2.775000 0.337572 0.386897 0.018377
2.776000 0.347362 0.428897 0.066109
2.777000 0.317812 0.467708 0.124696
2.778000 0.300970 0.491295 0.155894
2.779000 0.284979 0.521461 0.219119
2.780000 0.272300 0.526642 0.232971
2.781000 0.234426 0.511433 0.235747
2.782000 0.248272 0.489925 0.225405
2.783000 0.222687 0.453225 0.220482
2.784000 0.202616 0.438090 0.187134
2.785000 0.192514 0.396970 0.174187
2.786000 0.218140 0.370666 0.132635
2.787000 0.203512 0.358670 0.116142
2.788000 0.236575 0.337152 0.054344
2.789000 0.274023 0.303659 0.006206
2.790000 0.287651 0.305563 -0.017436
2.791000 0.286206 0.308580 -0.016366
2.792000 0.286392 0.286591 -0.022579
2.793000 0.319152 0.308815 -0.028173
2.794000 0.291931 0.337925 0.010115
2.795000 0.291660 0.360656 0.041086
2.796000 0.263355 0.384803 0.111925
2.797000 0.254797 0.430730 0.140009
2.798000 0.256010 0.446191 0.162374
2.799000 0.249137 0.494046 0.229775
2.800000 0.238674 0.521375 0.245686
2.801000 0.240562 0.516689 0.241494
2.802000 0.243078 0.498408 0.240476
2.803000 0.207597 0.483755 0.242759
2.804000 0.200578 0.462153 0.229208
2.805000 0.197803 0.430497 0.200304
2.806000 0.196528 0.382633 0.160319
2.807000 0.182692 0.338202 0.109430
2.808000 0.218675 0.301060 0.060306
2.809000 0.233590 0.285570 0.028687
2.810000 0.233379 0.270471 -0.011749
2.811000 0.242452 0.260827 -0.015375
2.812000 0.252814 0.255618 -0.014125
2.813000 0.278541 0.268648 -0.043371
2.814000 0.261065 0.285537 -0.010855
2.815000 0.248914 0.306792 0.041277
2.816000 0.262035 0.345919 0.058051
2.817000 0.252775 0.388990 0.102914
2.818000 0.222002 0.416928 0.166820
2.819000 0.205243 0.431447 0.211318
2.820000 0.196033 0.460278 0.227428
2.821000 0.173329 0.456333 0.241272
2.822000 0.177846 0.444945 0.241916
2.823000 0.186195 0.434783 0.219782
2.824000 0.178737 0.402577 0.187654
2.825000 0.138322 0.353919 0.196235
2.826000 0.131795 0.330841 0.172009
2.827000 0.153546 0.294156 0.106638
2.828000 0.168395 0.250551 0.049211
2.829000 0.180983 0.196654 -0.012451
2.830000 0.162716 0.176851 -0.024975
2.831000 0.183235 0.171479 -0.047654
2.832000 0.196595 0.188191 -0.034326
2.833000 0.228882 0.227911 -0.031659
2.834000 0.238364 0.251249 -0.022550
2.835000 0.211315 0.246454 0.016429
2.836000 0.206094 0.286872 0.054391
2.837000 0.202241 0.330465 0.086940
2.838000 0.207393 0.345235 0.117486
2.839000 0.181953 0.367292 0.174329
2.840000 0.152784 0.373928 0.183022
2.841000 0.153189 0.376235 0.192235
2.842000 0.154957 0.366127 0.194021
2.843000 0.129101 0.357057 0.193566
2.844000 0.115529 0.336680 0.184491
2.845000 0.095412 0.305188 0.188273
2.846000 0.112218 0.277372 0.134801
2.847000 0.181629 0.289308 0.059946
2.848000 0.181764 0.234829 0.031594
2.849000 0.168769 0.174433 -0.020609
2.850000 0.168289 0.156189 -0.056533
2.851000 0.187438 0.145734 -0.062736
2.852000 0.209858 0.176147 -0.056912
2.853000 0.202977 0.187526 -0.046837
2.854000 0.186803 0.182925 -0.037984
2.855000 0.202478 0.192235 -0.025106
2.856000 0.175936 0.252548 0.045931
2.857000 0.188200 0.297857 0.067974
2.858000 0.176737 0.309665 0.106848
2.859000 0.142897 0.326239 0.158158
2.860000 0.138390 0.342288 0.191644
2.861000 0.120195 0.369137 0.204966
2.862000 0.093448 0.363223 0.234510
2.863000 0.090436 0.346031 0.219893
2.864000 0.083594 0.314702 0.213574
2.865000 0.074929 0.276486 0.186909
2.866000 0.115459 0.248852 0.097377
2.867000 0.123037 0.211565 0.043662
2.868000 0.134097 0.175436 0.010234
2.869000 0.154929 0.154706 -0.021015
2.870000 0.183981 0.168387 -0.048636
2.871000 0.181485 0.167007 -0.059078
2.872000 0.157883 0.140114 -0.042595
2.873000 0.153339 0.150102 -0.024679
2.874000 0.162834 0.175489 -0.020979
2.875000 0.183310 0.217272 -0.008774
2.876000 0.194222 0.257032 0.040968
2.877000 0.193396 0.297239 0.094228
2.878000 0.177104 0.314171 0.123072
2.879000 0.145337 0.338789 0.159565
2.880000 0.137321 0.353523 0.182583
2.881000 0.123529 0.351884 0.208111
2.882000 0.106761 0.354835 0.216120
2.883000 0.086862 0.345227 0.213631
2.884000 0.109782 0.333615 0.189412
2.885000 0.110612 0.292080 0.158596
2.886000 0.093857 0.241403 0.125934
2.887000 0.091724 0.201734 0.071082
2.888000 0.100962 0.173352 0.032480
2.889000 0.127267 0.159201 0.008866
2.890000 0.134189 0.126043 -0.033921
2.891000 0.138118 0.107457 -0.064090
2.892000 0.159219 0.110377 -0.093941
2.893000 0.180677 0.127100 -0.081873
2.894000 0.207316 0.171677 -0.052344
2.895000 0.228067 0.215478 -0.033814
2.896000 0.193624 0.243220 0.012200
2.897000 0.174140 0.273999 0.073239
2.898000 0.170864 0.298480 0.107982
2.899000 0.142232 0.315997 0.146485
2.900000 0.119495 0.338179 0.180851
2.901000 0.115599 0.363403 0.216658
2.902000 0.118098 0.364042 0.223236
2.903000 0.089631 0.348417 0.234701
2.904000 0.062430 0.312860 0.207274
2.905000 0.090842 0.276904 0.153103
2.906000 0.094009 0.227417 0.104953
2.907000 0.103348 0.183965 0.053691
2.908000 0.119322 0.166053 0.004557
2.909000 0.159839 0.149251 -0.049964
2.910000 0.181449 0.141141 -0.056109
2.911000 0.151390 0.131023 -0.045957
2.912000 0.143311 0.134838 -0.061412
2.913000 0.161745 0.142894 -0.063147
2.914000 0.147827 0.175855 -0.011194
2.915000 0.154342 0.206122 0.031430
2.916000 0.197600 0.250526 0.037225
2.917000 0.178393 0.293691 0.085208
2.918000 0.145560 0.303850 0.122055
2.919000 0.120580 0.309577 0.180377
2.920000 0.103903 0.352803 0.224165
2.921000 0.082703 0.363630 0.251066
2.922000 0.085277 0.359544 0.237811
2.923000 0.088532 0.328211 0.215000
2.924000 0.107720 0.304291 0.176960
2.925000 0.103245 0.267738 0.136604
2.926000 0.071725 0.238174 0.124588
2.927000 0.122505 0.189781 0.047687
2.928000 0.137317 0.183696 0.002873
2.929000 0.160368 0.179050 -0.025776
2.930000 0.179143 0.135205 -0.069047
2.931000 0.156468 0.123337 -0.050305
2.932000 0.124636 0.134850 -0.032594
2.933000 0.171725 0.137209 -0.066330
2.934000 0.193461 0.170535 -0.055477
2.935000 0.207616 0.213289 -0.034386
2.936000 0.232135 0.252690 -0.003581
2.937000 0.199528 0.275284 0.053473
2.938000 0.177251 0.307566 0.093119
2.939000 0.167138 0.352878 0.157227
2.940000 0.150038 0.386143 0.212126
2.941000 0.158568 0.395983 0.197815
2.942000 0.139312 0.369623 0.203568
2.943000 0.127179 0.349073 0.206758
2.944000 0.105118 0.329674 0.192456
2.945000 0.104214 0.306749 0.158281
2.946000 0.115884 0.265243 0.130185
2.947000 0.115811 0.236249 0.092479
2.948000 0.122693 0.213852 0.045850
2.949000 0.126952 0.179166 0.017779
2.950000 0.133536 0.138373 -0.022139
2.951000 0.151946 0.122762 -0.069070
2.952000 0.161758 0.128247 -0.062415
2.953000 0.173530 0.139267 -0.060458
2.954000 0.198933 0.176098 -0.056769
2.955000 0.194260 0.210554 -0.017862
2.956000 0.223272 0.263653 0.027589
2.957000 0.181594 0.304667 0.092787
2.958000 0.187700 0.354694 0.125533
2.959000 0.159211 0.346249 0.168278
2.960000 0.149511 0.361188 0.185557
2.961000 0.154147 0.379622 0.196925
2.962000 0.149540 0.392040 0.215216
2.963000 0.145812 0.390015 0.228096
2.964000 0.121604 0.369811 0.214929
2.965000 0.109925 0.314024 0.168570
2.966000 0.095163 0.260485 0.134618
2.967000 0.138477 0.227891 0.075255
2.968000 0.135476 0.193648 0.015915
2.969000 0.141246 0.164109 -0.016890
2.970000 0.152396 0.144946 -0.030454
2.971000 0.169911 0.150176 -0.049373
2.972000 0.136368 0.120089 -0.057464
2.973000 0.155712 0.121041 -0.057938
2.974000 0.190970 0.159985 -0.048619
2.975000 0.173963 0.202050 -0.009629
2.976000 0.155842 0.230406 0.051886
2.977000 0.160545 0.275955 0.090426
2.978000 0.158160 0.308945 0.114158
2.979000 0.167295 0.349052 0.157109
2.980000 0.152009 0.363062 0.192385
2.981000 0.123879 0.372826 0.210599
2.982000 0.132039 0.393050 0.216959
2.983000 0.119940 0.371844 0.234432
2.984000 0.117918 0.375141 0.225405
2.985000 0.100652 0.341641 0.198317
2.986000 0.116646 0.305127 0.154933
2.987000 0.099073 0.235471 0.104368
2.988000 0.080040 0.181788 0.058123
2.989000 0.111992 0.170702 0.019598
2.990000 0.141726 0.139443 -0.025782
2.991000 0.135925 0.128363 -0.047656
2.992000 0.141788 0.134983 -0.036543
2.993000 0.137461 0.151444 -0.010145
2.994000 0.176988 0.185283 -0.026137
2.995000 0.178988 0.206223 -0.015337
2.996000 0.219486 0.238610 -0.004863
2.997000 0.210842 0.277635 0.043179
2.998000 0.150072 0.311136 0.125821
2.999000 0.099487 0.324077 0.201001
3.000000 0.130959 0.369833 0.216202
3.001000 0.140995 0.391047 0.213719
3.002000 0.118808 0.372635 0.227000
3.003000 0.116721 0.362493 0.226274
3.004000 0.085476 0.351658 0.233455
3.005000 0.094445 0.316839 0.176393
3.006000 0.091067 0.268906 0.153663
3.007000 0.096030 0.239317 0.117244
3.008000 0.091210 0.209835 0.073948
3.009000 0.126866 0.172202 0.014860
3.010000 0.133291 0.144437 -0.013002
3.011000 0.154204 0.140636 -0.056409
3.012000 0.181852 0.142664 -0.075345
3.013000 0.163509 0.149708 -0.048246
3.014000 0.164399 0.165954 -0.017120
3.015000 0.186589 0.213549 -0.015507
3.016000 0.216552 0.241874 -0.011160
3.017000 0.194725 0.287396 0.077886
3.018000 0.163077 0.325956 0.128291
3.019000 0.145393 0.353415 0.174057
3.020000 0.157561 0.380814 0.196695
3.021000 0.155769 0.395743 0.212783
3.022000 0.132631 0.391457 0.221473
3.023000 0.111486 0.361248 0.223330
3.024000 0.113890 0.349193 0.206584
3.025000 0.117992 0.322102 0.167236
3.026000 0.111715 0.284389 0.140527
3.027000 0.125658 0.239355 0.091125
3.028000 0.114283 0.213086 0.057083
3.029000 0.135415 0.193203 0.018453
3.030000 0.142596 0.138682 -0.018188
3.031000 0.164546 0.125540 -0.069508
3.032000 0.167499 0.150141 -0.063511
3.033000 0.191468 0.163131 -0.050577
3.034000 0.196223 0.179243 -0.040453
3.035000 0.191401 0.213873 -0.023055
3.036000 0.231755 0.274575 0.023253
3.037000 0.243717 0.338636 0.068829
3.038000 0.204489 0.344391 0.099857
3.039000 0.170952 0.340375 0.136940
3.040000 0.152637 0.364173 0.192452
3.041000 0.124919 0.374669 0.220909
3.042000 0.126481 0.394131 0.223771
3.043000 0.131209 0.381892 0.227884
3.044000 0.100591 0.358156 0.226294
3.045000 0.126313 0.353792 0.188362
3.046000 0.145879 0.334704 0.155467
3.047000 0.155562 0.269059 0.091371
3.048000 0.138715 0.225363 0.045884
3.049000 0.126413 0.179439 0.014449
3.050000 0.159541 0.143697 -0.034550
3.051000 0.175014 0.144693 -0.068839
3.052000 0.150430 0.142715 -0.040353
3.053000 0.150808 0.137573 -0.028559
3.054000 0.149619 0.171740 -0.014079
3.055000 0.172868 0.232897 0.029605
3.056000 0.192479 0.265635 0.055664
3.057000 0.171460 0.259989 0.072894
3.058000 0.154680 0.297051 0.114666
3.059000 0.152176 0.357296 0.178149
3.060000 0.155895 0.392510 0.215302
3.061000 0.124238 0.384520 0.226851
3.062000 0.093980 0.361976 0.226884
3.063000 0.102940 0.376012 0.242713
3.064000 0.109760 0.362572 0.231676
3.065000 0.119526 0.334913 0.176624
3.066000 0.092349 0.275724 0.150021
3.067000 0.105156 0.226631 0.105264
3.068000 0.094822 0.198152 0.067514
3.069000 0.099547 0.166977 0.021653
3.070000 0.119466 0.120736 -0.021957
3.071000 0.147287 0.126965 -0.055075
3.072000 0.185382 0.148473 -0.078449
3.073000 0.179612 0.139185 -0.066997
3.074000 0.195979 0.156697 -0.061638
3.075000 0.226570 0.216196 -0.050381
3.076000 0.211778 0.228225 -0.004582
3.077000 0.174515 0.269641 0.079148
3.078000 0.195052 0.326622 0.102641
3.079000 0.161613 0.352779 0.163722
3.080000 0.119422 0.352722 0.216916
3.081000 0.095222 0.351648 0.226830
3.082000 0.099072 0.367609 0.229837
3.083000 0.103265 0.383853 0.256087
3.084000 0.105542 0.375980 0.243521
3.085000 0.122425 0.336941 0.172905
3.086000 0.102518 0.300083 0.158347
3.087000 0.102106 0.255891 0.132590
3.088000 0.095886 0.207986 0.079462
3.089000 0.107153 0.183875 0.027800
3.090000 0.127508 0.132871 -0.013985
3.091000 0.149283 0.138437 -0.043263
3.092000 0.157565 0.144978 -0.047052
3.093000 0.173090 0.148555 -0.052380
3.094000 0.196276 0.164874 -0.050161
3.095000 0.186392 0.201127 -0.021662
3.096000 0.192803 0.239019 0.016310
3.097000 0.184174 0.278500 0.078308
3.098000 0.183998 0.330065 0.104551
3.099000 0.174779 0.362065 0.154914
3.100000 0.173056 0.403261 0.214889
3.101000 0.166526 0.428312 0.226539
3.102000 0.147025 0.403456 0.233648
3.103000 0.123089 0.394795 0.253123
3.104000 0.109425 0.369489 0.225958
3.105000 0.113105 0.347401 0.195168
3.106000 0.099891 0.295839 0.173904
3.107000 0.118451 0.263288 0.108914
3.108000 0.100494 0.220214 0.078116
3.109000 0.137359 0.186348 0.026911
3.110000 0.159851 0.177232 -0.012542
3.111000 0.179949 0.196998 -0.023989
3.112000 0.171764 0.182583 -0.016654
3.113000 0.179417 0.183382 -0.020281
3.114000 0.195009 0.212378 -0.018172
3.115000 0.186848 0.246220 0.022632
3.116000 0.212126 0.266618 0.036570
3.117000 0.197546 0.304688 0.083356
3.118000 0.183363 0.345501 0.127842
3.119000 0.173735 0.364816 0.171925
3.120000 0.154484 0.399813 0.231154
3.121000 0.126427 0.405584 0.245263
3.122000 0.127195 0.403608 0.251707
3.123000 0.135025 0.401114 0.244114
3.124000 0.123573 0.404677 0.240652
3.125000 0.136367 0.382860 0.201586
3.126000 0.121332 0.332994 0.191078
3.127000 0.140392 0.308331 0.136801
3.128000 0.133686 0.268634 0.095196
3.129000 0.154874 0.234137 0.062303
3.130000 0.186614 0.208443 -0.006762
3.131000 0.211916 0.214144 -0.037330
3.132000 0.220782 0.209256 -0.040488
3.133000 0.214160 0.192395 -0.044484
3.134000 0.213600 0.212899 -0.031860
3.135000 0.217672 0.246004 0.002993
3.136000 0.238264 0.284174 0.032788
3.137000 0.217479 0.355519 0.107454
3.138000 0.199274 0.377344 0.135567
3.139000 0.192473 0.386113 0.179188
3.140000 0.188705 0.433354 0.224022
3.141000 0.158057 0.434764 0.241881
3.142000 0.132687 0.409924 0.256867
3.143000 0.125508 0.396041 0.250738
3.144000 0.093997 0.383350 0.250402
3.145000 0.104393 0.350688 0.210865
3.146000 0.113617 0.328170 0.190133
3.147000 0.132392 0.301281 0.125519
3.148000 0.127875 0.257029 0.091185
3.149000 0.108836 0.187314 0.052420
3.150000 0.129640 0.162126 0.009438
3.151000 0.164236 0.171368 -0.034822
3.152000 0.166241 0.161538 -0.029420
3.153000 0.187100 0.155667 -0.050866
3.154000 0.187950 0.172347 -0.058697
3.155000 0.173134 0.201104 -0.004907
3.156000 0.180805 0.234924 0.031338
3.157000 0.151274 0.288657 0.107375
3.158000 0.174802 0.347923 0.136399
3.159000 0.191128 0.380625 0.170195
3.160000 0.161946 0.394581 0.209541
3.161000 0.149629 0.395862 0.209914
3.162000 0.131424 0.401298 0.229035
3.163000 0.127458 0.391245 0.234259
3.164000 0.122105 0.365218 0.212379
3.165000 0.142496 0.340357 0.163054
3.166000 0.107253 0.283810 0.154101
3.167000 0.108686 0.258506 0.108580
3.168000 0.111429 0.220194 0.063146
3.169000 0.138300 0.197216 0.036447
3.170000 0.156563 0.166543 -0.024468
3.171000 0.136428 0.129413 -0.042241
3.172000 0.157555 0.123710 -0.053914
3.173000 0.174480 0.154228 -0.049596
3.174000 0.169341 0.183318 -0.021558
3.175000 0.182431 0.230742 0.025839
3.176000 0.216459 0.243328 0.002621
3.177000 0.207757 0.270795 0.027245
3.178000 0.202843 0.317076 0.094865
3.179000 0.190749 0.351021 0.137250
3.180000 0.156055 0.368405 0.173488
3.181000 0.161069 0.396005 0.195189
3.182000 0.171557 0.384524 0.197793
3.183000 0.153923 0.379243 0.184754
3.184000 0.138384 0.368791 0.189320
3.185000 0.109690 0.328472 0.200567
3.186000 0.099845 0.290891 0.164286
3.187000 0.076795 0.244369 0.124159
3.188000 0.071166 0.212171 0.111084
3.189000 0.073242 0.181940 0.096317
3.190000 0.097474 0.179179 0.043982
3.191000 0.105988 0.168805 0.013905
3.192000 0.145701 0.146616 -0.023393
3.193000 0.156224 0.148827 -0.038958
3.194000 0.174381 0.161182 -0.050912
3.195000 0.181593 0.187589 -0.008330
3.196000 0.150950 0.214005 0.032404
3.197000 0.124984 0.251284 0.087396
3.198000 0.141916 0.292588 0.116234
3.199000 0.152762 0.321190 0.147678
3.200000 0.129870 0.367912 0.196684
3.201000 0.128770 0.375877 0.216377
3.202000 0.131372 0.385953 0.234768
3.203000 0.121306 0.377462 0.226965
3.204000 0.090949 0.370026 0.230544
3.205000 0.113417 0.342945 0.201561
3.206000 0.102751 0.313756 0.180014
3.207000 0.109028 0.275452 0.125037
3.208000 0.116599 0.211791 0.068724
3.209000 0.127984 0.187076 0.029643
3.210000 0.164538 0.181198 -0.029756
3.211000 0.148510 0.139166 -0.037398
3.212000 0.150457 0.129100 -0.046368
3.213000 0.144835 0.130949 -0.042896
3.214000 0.155003 0.166260 -0.036974
3.215000 0.206071 0.203099 -0.027849
3.216000 0.197053 0.226873 0.013328
3.217000 0.162264 0.261610 0.059853
3.218000 0.145237 0.289002 0.113910
3.219000 0.150749 0.313783 0.135760
3.220000 0.152215 0.359337 0.168964
3.221000 0.170245 0.381419 0.185638
3.222000 0.151190 0.382588 0.208167
3.223000 0.150204 0.402147 0.215414
3.224000 0.123387 0.381540 0.231857
3.225000 0.106228 0.331035 0.200469
3.226000 0.086123 0.292763 0.170522
3.227000 0.074232 0.238087 0.120998
3.228000 0.097274 0.196234 0.078130
3.229000 0.118998 0.177230 0.023746
3.230000 0.150321 0.171543 -0.022079
3.231000 0.150246 0.133678 -0.031619
3.232000 0.148406 0.127555 -0.046992
3.233000 0.149131 0.124930 -0.069693
3.234000 0.183864 0.137293 -0.076062
3.235000 0.200618 0.169569 -0.050463
3.236000 0.208746 0.208849 -0.032697
3.237000 0.205936 0.239347 0.008086
3.238000 0.191193 0.276784 0.069470
3.239000 0.160294 0.292917 0.100838
3.240000 0.123231 0.299964 0.144119
3.241000 0.125996 0.324195 0.179001
3.242000 0.123839 0.340562 0.187071
3.243000 0.117650 0.344387 0.188266
3.244000 0.098406 0.327051 0.210283
3.245000 0.097318 0.311604 0.173495
3.246000 0.106914 0.306706 0.158544
3.247000 0.154214 0.295137 0.116817
3.248000 0.177481 0.262936 0.057603
3.249000 0.198286 0.248879 0.005781
3.250000 0.232357 0.254630 -0.011369
3.251000 0.256177 0.253045 -0.032553
3.252000 0.292436 0.275511 -0.054310
3.253000 0.325735 0.308873 -0.044645
3.254000 0.343379 0.345603 -0.018184
3.255000 0.342308 0.417304 0.037377
3.256000 0.386517 0.495012 0.072116
3.257000 0.366784 0.545828 0.162677
3.258000 0.384787 0.627008 0.213751
3.259000 0.398789 0.699260 0.255302
3.260000 0.425181 0.745562 0.297773
3.261000 0.441972 0.800511 0.336949
3.262000 0.435746 0.830128 0.361667
3.263000 0.440308 0.830810 0.360348
3.264000 0.401558 0.795740 0.381113
3.265000 0.315274 0.752596 0.409179
3.266000 0.279569 0.685416 0.364757
3.267000 0.252707 0.585298 0.311917
3.268000 0.217814 0.507864 0.255827
3.269000 0.194259 0.446970 0.208073
3.270000 0.154066 0.373014 0.197846
3.271000 0.071625 0.313744 0.208664
3.272000 0.023041 0.271608 0.205795
3.273000 -0.032963 0.216217 0.231059
3.274000 -0.085935 0.206923 0.276811
3.275000 -0.165601 0.216618 0.352834
3.276000 -0.217395 0.224065 0.414741
3.277000 -0.226992 0.236770 0.446420
3.278000 -0.226658 0.275982 0.461744
3.279000 -0.199521 0.318483 0.483443
3.280000 -0.188683 0.339000 0.517678
3.281000 -0.181520 0.328635 0.481250
3.282000 -0.143853 0.331709 0.437620
3.283000 -0.124202 0.321985 0.423570
3.284000 -0.119222 0.307541 0.403630
3.285000 -0.132196 0.255918 0.347325
3.286000 -0.133836 0.193528 0.298136
3.287000 -0.107696 0.154297 0.234199
3.288000 -0.043458 0.155071 0.161581
3.289000 -0.016016 0.141965 0.110159
3.290000 0.033203 0.110609 0.060312
3.291000 0.030607 0.087588 0.023328
3.292000 0.024471 0.064344 -0.000102
3.293000 0.050115 0.062364 -0.012755
3.294000 0.086175 0.090245 -0.032022
3.295000 0.126800 0.150050 -0.013275
3.296000 0.142299 0.207095 0.045151
3.297000 0.122792 0.241236 0.100713
3.298000 0.104962 0.278040 0.134612
